Software Version:	2.0.6470.17062
Unit SN:	AIO-M72-0210
Spectrometer SN:	5335
Date:	1/8/2018 11:54:58 AM
Data Line Index:	25
Spectral Points:	1941
Integration time (ms):	10000
Averages:	20
Delay (ms):	0
Sequence Number:	1
Processing:	dark subtract
Laser Power (mW):	300
Laser Current (mA):	753
Laser Diode Temp (C):	25
Laser Case Temp (C):	22.7
System Temp (C):	23.6
Spectrometer Temp (C):	20.7
CCD Temp (C):	-0.003
Secondary Temp (C):	20.006
Heatsink Temp (C):	18.895
CCDPCB Temp (C):	37.663
SecondaryPCB Temp (C):	25.024

Wavelength	RamanShift	Raw Counts	Dark Subtracted
801.1299	250.3411	43421.3	41823.7
801.2731	252.571	42474.45	40934.45
801.4162	254.8003	41701.7	40150.8
801.5594	257.0291	40824	39235.2
801.7026	259.2572	39986.95	38386.5
801.8458	261.4848	39153	37546.85
801.989	263.7118	38377	36838.1
802.1322	265.9382	37565.65	35964.95
802.2755	268.1641	36796.1	35199.55
802.4187	270.3894	36077.25	34489.65
802.562	272.6141	35354.95	33762.3
802.7053	274.8382	34579.2	33027.85
802.8486	277.0617	33911.25	32352.25
802.9919	279.2847	33198.5	31690.95
803.1352	281.5071	32668.3	31063.4
803.2785	283.7289	32057.45	30445.25
803.4219	285.9501	31356.45	29816.55
803.5652	288.1707	30818.95	29271.1
803.7086	290.3908	30323.9	28728.5
803.852	292.6103	29874.1	28312.15
803.9954	294.8292	29352.35	27784.55
804.1388	297.0475	29283.95	27547.35
804.2823	299.2652	28801	27145.4
804.4257	301.4823	28423.45	26773.15
804.5692	303.6989	28145.45	26532.45
804.7126	305.9148	27861.95	26220.15
804.8561	308.1302	27410.55	25810.1
804.9996	310.345	27150.45	25526.55
805.1431	312.5592	26802.75	25250.1
805.2867	314.7728	26621.95	25064.3
805.4302	316.9859	26442.1	24757.05
805.5738	319.1983	26178.85	24568.05
805.7173	321.4101	25999.55	24397.35
805.8609	323.6214	26046.4	24266.85
806.0045	325.832	25765.75	24083.1
806.1481	328.0421	25628.75	24032.45
806.2917	330.2516	25535.55	23877.2
806.4353	332.4605	25446.35	23831.15
806.579	334.6688	25493.45	23780.95
806.7226	336.8764	25240.6	23677.2
806.8663	339.0835	25124.7	23575.6
807.01	341.2901	25257.9	23611.55
807.1536	343.496	25325.8	23591.5
807.2973	345.7013	25215.85	23628.35
807.4411	347.906	25234.65	23634.5
807.5848	350.1101	25301.05	23699.55
807.7285	352.3136	25426.25	23764.9
807.8723	354.5165	25393.4	23766.05
808.016	356.7188	25417.15	23772.2
808.1598	358.9206	25483.35	23831.7
808.3036	361.1217	25450.25	23795.15
808.4474	363.3222	25473.9	23796.65
808.5912	365.5221	25467.85	23789
808.735	367.7214	25426.4	23773.05
808.8788	369.9201	25613.15	23757.05
809.0227	372.1182	25650.6	23913.65
809.1665	374.3157	26349.3	24661.5
809.3104	376.5126	27774.35	26067.85
809.4543	378.7089	28588.55	26927.55
809.5982	380.9046	28197.85	26443.2
809.7421	383.0997	26810.05	25166.85
809.886	385.2941	25928.65	24237.3
810.0299	387.488	25475.8	23899.1
810.1739	389.6813	25351.5	23760.25
810.3178	391.8739	25289.7	23687.15
810.4618	394.0659	25227.8	23622.8
810.6057	396.2574	25340.35	23692.35
810.7497	398.4482	25399.65	23733.95
810.8937	400.6384	25509.8	23810.1
811.0377	402.828	25575.65	23912.35
811.1817	405.017	26090.25	24100.7
811.3257	407.2054	26188.45	24421
811.4698	409.3931	26559.2	24929.1
811.6138	411.5803	28406.4	26717.6
811.7579	413.7668	34087.15	32349.7
811.9019	415.9527	41158.95	39440.85
812.046	418.138	42955.9	41209.85
812.1901	420.3227	37509.4	35745.3
812.3342	422.5068	31728.85	29698.95
812.4783	424.6903	28699.7	26892.35
812.6224	426.8731	27846.55	26143.4
812.7666	429.0553	27893.55	26212.7
812.9107	431.2369	28251.65	26168.15
813.0549	433.4179	27385.05	25491.7
813.199	435.5983	26480.15	24781.75
813.3432	437.7781	25905.1	24289.6
813.4874	439.9572	25681.45	24019.95
813.6316	442.1357	25538.85	23926.8
813.7758	444.3136	25773.95	24130.3
813.92	446.4909	26229	24591.3
814.0642	448.6675	26943.25	24908.75
814.2084	450.8435	26551.1	24735.2
814.3527	453.0189	25875.5	24177.65
814.4969	455.1937	25504.05	23820.4
814.6412	457.3679	25265.7	23649.7
814.7854	459.5414	25064.05	23461
814.9297	461.7143	25134.85	23452.2
815.074	463.8866	25003.1	23368.25
815.2183	466.0582	24970.3	23280.85
815.3626	468.2293	24844.3	23132.4
815.5069	470.3997	24674.1	23001.85
815.6513	472.5694	24747.15	22959.1
815.7956	474.7386	24570.85	22846
815.9399	476.9071	24491.3	22767.55
816.0843	479.075	24779.65	22759.5
816.2287	481.2423	24566.05	22748.9
816.373	483.4089	24414.9	22730.5
816.5174	485.5749	24386.8	22620.8
816.6618	487.7403	24565.25	22570.65
816.8062	489.905	24189.25	22478.85
816.9506	492.0691	24083.45	22352.75
817.095	494.2326	23868.2	22219.05
817.2395	496.3954	23765.9	22118
817.3839	498.5576	23651.5	22003.7
817.5283	500.7192	23508.35	21844.45
817.6728	502.8801	23462.7	21776.5
817.8173	505.0405	23463.3	21692.4
817.9617	507.2001	23320.7	21617.85
818.1062	509.3592	23199.4	21557.15
818.2507	511.5176	23197.6	21444.65
818.3952	513.6753	23108	21360.25
818.5397	515.8325	22889.9	21234.4
818.6842	517.9889	22875.6	21236.7
818.8287	520.1448	22696.85	21065.5
818.9733	522.3	22741.5	20992.05
819.1178	524.4546	22653.8	20887.8
819.2623	526.6085	22506.6	20803.35
819.4069	528.7618	22407.65	20670.7
819.5514	530.9145	22324.5	20593.45
819.696	533.0665	22223	20551.65
819.8406	535.2179	22293.75	20458.2
819.9852	537.3686	22079.65	20330.5
820.1298	539.5187	22170.5	20310.35
820.2744	541.6682	21935	20204.5
820.419	543.817	21837.1	20085.25
820.5636	545.9651	21895.8	20041.75
820.7082	548.1126	21616.35	19903.3
820.8528	550.2595	21551.25	19774.75
820.9975	552.4058	21532.15	19712.15
821.1421	554.5513	21338.5	19594.95
821.2868	556.6963	21347.95	19572.1
821.4314	558.8406	21360.45	19528.95
821.5761	560.9842	21242	19480.95
821.7208	563.1272	21106.1	19425.05
821.8655	565.2696	21091.35	19429.15
822.0102	567.4113	21004.05	19346.15
822.1549	569.5524	21159.55	19530.15
822.2996	571.6928	21547.3	19899.25
822.4443	573.8325	22610.6	20935.5
822.589	575.9717	23800	21905.2
822.7337	578.1101	23701.7	21867.6
822.8785	580.2479	22559.4	20794.55
823.0232	582.3851	21594.95	19850.45
823.1679	584.5216	21032.95	19259.75
823.3127	586.6575	20833.4	19028.05
823.4574	588.7927	20714.55	18820.8
823.6022	590.9272	20453.15	18734.3
823.747	593.0611	20410.5	18635.4
823.8918	595.1944	20295	18555.3
824.0366	597.327	20198.15	18456.25
824.1813	599.4589	20102.2	18404.7
824.3261	601.5902	20007.65	18283.45
824.4709	603.7208	19973.95	18250.6
824.6158	605.8508	19948.35	18185.75
824.7606	607.9802	19831.3	18050.55
824.9054	610.1088	19796.45	18103.1
825.0502	612.2368	19769.15	18032
825.1951	614.3642	19705.6	18016.95
825.3399	616.4909	19678.25	17907.15
825.4848	618.6169	19691.45	17803.6
825.6296	620.7423	19516.8	17703.25
825.7745	622.867	19363.1	17654
825.9193	624.9911	19303	17582.95
826.0642	627.1145	19322.75	17536.95
826.2091	629.2372	19300.6	17495.7
826.354	631.3593	19540.75	17453.3
826.4989	633.4807	19368.65	17443.7
826.6438	635.6015	19329.95	17402.55
826.7887	637.7216	19105.95	17377.55
826.9336	639.841	19033.05	17368.7
827.0785	641.9598	19131.55	17416.35
827.2234	644.0779	19143.2	17425.3
827.3683	646.1954	19064.1	17330.6
827.5132	648.3122	18975.7	17209.5
827.6582	650.4283	18847.75	17093.75
827.8031	652.5438	18773.1	16975.75
827.9481	654.6585	18703.1	16876.7
828.093	656.7727	18652.25	16830.6
828.238	658.8861	18633.95	16781.1
828.3829	660.9989	18584.55	16700.8
828.5279	663.1111	18491.2	16656.15
828.6728	665.2225	18404.55	16538.8
828.8178	667.3333	18266	16473.35
828.9628	669.4435	18219.05	16354
829.1078	671.5529	18234.75	16275.25
829.2528	673.6617	18002.65	16217.1
829.3978	675.7699	17920.5	16131.9
829.5428	677.8773	17931.3	16082.75
829.6878	679.9841	17835.65	16032.1
829.8328	682.0902	17771	15990
829.9778	684.1957	17788.15	16007.55
830.1228	686.3005	17760.75	15969.95
830.2678	688.4046	17747.7	15922.45
830.4128	690.508	17644.9	15901.25
830.5579	692.6108	17664.15	15894.35
830.7029	694.7129	17698	15885.15
830.8479	696.8143	17680.7	15816.9
830.993	698.9151	17601.3	15777.6
831.138	701.0152	17554.65	15737.25
831.2831	703.1146	17521.85	15733.3
831.4281	705.2133	17426.1	15696
831.5732	707.3114	17467.15	15656.5
831.7183	709.4087	17395.35	15636.9
831.8633	711.5054	17477.8	15680.4
832.0084	713.6015	17445.7	15667.35
832.1535	715.6968	17384.75	15631.75
832.2985	717.7915	17340.6	15622.3
832.4436	719.8855	17352.55	15612.25
832.5887	721.9789	17324.25	15594.05
832.7338	724.0715	17383.3	15573.7
832.8789	726.1635	17338.3	15563.05
833.024	728.2548	17458.6	15661
833.1691	730.3454	17579.75	15714.7
833.3142	732.4354	17878.1	15844.45
833.4593	734.5246	17877.15	16036.05
833.6044	736.6132	18116.45	16314.05
833.7495	738.7011	18424.95	16648.8
833.8946	740.7884	18940.35	17209.2
834.0398	742.8749	19720	18021.9
834.1849	744.9608	20763.95	19064.2
834.33	747.046	21923.35	20197.7
834.4751	749.1305	22836.9	21035.9
834.6203	751.2143	23015.95	21142.95
834.7654	753.2974	22087.25	20314.3
834.9105	755.3799	20870.05	19093.7
835.0557	757.4617	19652.8	17922.45
835.2008	759.5428	18789.15	17017.4
835.346	761.6232	18076.85	16320.2
835.4911	763.7029	17642.95	15834.95
835.6363	765.782	17252.5	15456.8
835.7814	767.8603	16901.65	15158.2
835.9266	769.938	16716.05	14948.55
836.0717	772.015	16643	14783.65
836.2169	774.0913	16434.95	14626.9
836.3621	776.1669	16309.15	14550.85
836.5072	778.2419	16231.7	14449.25
836.6524	780.3161	16112.4	14385.85
836.7976	782.3897	16066.35	14321.35
836.9428	784.4625	16021.1	14310.3
837.0879	786.5347	15997.65	14264.6
837.2331	788.6062	16150.25	14238.35
837.3783	790.6771	15926.5	14135.8
837.5235	792.7472	15915.75	14088.4
837.6687	794.8166	16019.4	14038.95
837.8138	796.8854	15718.25	13900
837.959	798.9534	15589.4	13807.8
838.1042	801.0208	15485.6	13702
838.2494	803.0875	15448.05	13680.95
838.3946	805.1535	15348.6	13601.45
838.5398	807.2188	15351.15	13559.45
838.685	809.2834	15212.4	13469.6
838.8302	811.3473	15159.95	13400.3
838.9754	813.4106	15026.45	13358.6
839.1206	815.4731	14989.15	13301.45
839.2658	817.5349	14927.75	13182.15
839.411	819.5961	14927.95	13135.05
839.5562	821.6566	14784.1	13048.4
839.7014	823.7163	14707.8	12962.1
839.8467	825.7754	14748.9	12846.65
839.9919	827.8338	14668.35	12826.6
840.1371	829.8915	14549.55	12773.65
840.2823	831.9485	14463.55	12733.2
840.4275	834.0048	14485.4	12679.75
840.5727	836.0604	14388.3	12587.45
840.7179	838.1153	14328.1	12565.75
840.8632	840.1695	14237.95	12504.85
841.0084	842.2231	14309.55	12446.65
841.1536	844.2759	14178.55	12355.55
841.2988	846.328	14176.9	12301.15
841.444	848.3795	13976.2	12197.55
841.5893	850.4302	13907.2	12179.1
841.7345	852.4802	13897.35	12135.6
841.8797	854.5296	13885.3	12047.55
842.0249	856.5782	13888.05	12026.6
842.1702	858.6262	13723.8	11926.6
842.3154	860.6734	13768.8	11930.1
842.4606	862.72	13592.55	11833.6
842.6058	864.7658	13469.5	11715.45
842.7511	866.811	13492.7	11670.35
842.8963	868.8555	13410	11580.95
843.0415	870.8992	13237.6	11479.05
843.1868	872.9423	13198.65	11413.6
843.332	874.9846	13188.35	11339.2
843.4772	877.0263	13092.45	11283.3
843.6225	879.0672	12960.05	11214.95
843.7677	881.1075	12860.95	11155.6
843.9129	883.1471	12854.05	11095.95
844.0581	885.1859	12819.7	11022.85
844.2034	887.2241	12795.3	10950.3
844.3486	889.2615	12627.2	10898.35
844.4938	891.2983	12550.45	10828.15
844.6391	893.3343	12401.65	10734.1
844.7843	895.3696	12384.05	10648.55
844.9295	897.4043	12467.25	10611.85
845.0747	899.4382	12375.2	10558.4
845.22	901.4715	12366	10509.65
845.3652	903.504	12319.85	10444
845.5104	905.5358	12219.75	10419.05
845.6557	907.5669	12166.45	10378.2
845.8009	909.5973	12143.15	10337.3
845.9461	911.6271	12429.75	10273.8
846.0913	913.6561	12261.4	10216.75
846.2366	915.6844	11962.65	10148.55
846.3818	917.7119	11965.9	10057.7
846.527	919.7388	11848.05	9998.65
846.6722	921.765	11770.1	9973.9
846.8175	923.7905	12340.6	9926.65
846.9627	925.8153	11970.55	9893.8
847.1079	927.8393	11682.55	9866.15
847.2531	929.8627	11672.1	9835.4
847.3983	931.8853	11594.9	9764.6
847.5436	933.9073	11501.8	9758.55
847.6888	935.9285	11466.6	9722.75
847.834	937.949	11349.15	9657.95
847.9792	939.9688	11387.65	9600.1
848.1244	941.9879	11410.15	9575.8
848.2696	944.0063	11311.6	9486.55
848.4148	946.024	11382.35	9495.3
848.56	948.041	11218.4	9435.3
848.7052	950.0573	11174.7	9374.5
848.8504	952.0728	11187.25	9381.05
848.9957	954.0877	11136.95	9360.25
849.1409	956.1018	11068.45	9331.55
849.2861	958.1152	11096.2	9318.4
849.4313	960.1279	10986.7	9282.4
849.5765	962.1399	11000.65	9224.85
849.7216	964.1512	10925.95	9192.3
849.8668	966.1618	10966.9	9177.25
850.012	968.1717	10966.65	9123.2
850.1572	970.1808	10838	9073.95
850.3024	972.1893	10843	9045.45
850.4476	974.197	10848.55	9049.05
850.5928	976.204	10788.8	9036.9
850.738	978.2103	10766.5	9033.3
850.8831	980.2159	10799.55	9027.9
851.0283	982.2208	10932.1	9035
851.1735	984.2249	10980.3	9029.85
851.3187	986.2284	10820.15	9016.85
851.4638	988.2311	11143.2	8965.95
851.609	990.2331	10866.8	8936.95
851.7542	992.2344	10822.15	8902.4
851.8993	994.235	10893.2	8896.9
852.0445	996.2349	10762.45	8845.9
852.1897	998.2341	10694.15	8862.65
852.3348	1000.2325	10726.35	8866.95
852.48	1002.2302	10646.1	8871.5
852.6251	1004.2272	10544.6	8839.9
852.7703	1006.2235	10607.35	8814.25
852.9154	1008.2191	10550.05	8812.65
853.0606	1010.214	10610.05	8819.5
853.2057	1012.2081	10549.05	8803.3
853.3508	1014.2015	10523.25	8770
853.496	1016.1942	10516.85	8747.25
853.6411	1018.1862	10505.5	8714.45
853.7862	1020.1775	10620.2	8677.45
853.9314	1022.168	10548.6	8659.65
854.0765	1024.1579	10452.2	8667.2
854.2216	1026.147	10477.9	8668.7
854.3667	1028.1354	10473.75	8662.5
854.5118	1030.1231	10395.95	8646.4
854.657	1032.11	10427.95	8649.75
854.8021	1034.0963	10402.95	8663.8
854.9472	1036.0818	10330.2	8596.95
855.0923	1038.0666	10342.6	8567.75
855.2374	1040.0507	10371.1	8564.65
855.3825	1042.034	10435	8554.55
855.5275	1044.0166	10316.55	8532.15
855.6726	1045.9986	10303.15	8530.5
855.8177	1047.9798	10290.8	8515.4
855.9628	1049.9602	10255.95	8532.5
856.1079	1051.94	10286.7	8526
856.2529	1053.919	10265.5	8526.95
856.398	1055.8973	10233.2	8501.8
856.5431	1057.8749	10288.75	8462.55
856.6881	1059.8518	10231.55	8432.4
856.8332	1061.8279	10278.2	8423.15
856.9782	1063.8033	10236.55	8385.5
857.1233	1065.778	10156.2	8364.35
857.2683	1067.752	10127.7	8368.45
857.4134	1069.7253	10505.05	8374.1
857.5584	1071.6978	10298.6	8351.4
857.7034	1073.6696	10159.9	8371.95
857.8485	1075.6407	10108.55	8332.55
857.9935	1077.611	10156.7	8339.05
858.1385	1079.5806	10065.85	8292.8
858.2835	1081.5496	9983.1	8254.45
858.4285	1083.5177	9992.6	8245.45
858.5736	1085.4852	9963.95	8200.45
858.7186	1087.4519	9941.75	8184.55
858.8635	1089.4179	10018.6	8149.5
859.0085	1091.3832	9975.8	8131.3
859.1535	1093.3478	10006.5	8125.55
859.2985	1095.3116	9921.75	8136.35
859.4435	1097.2747	9920.15	8109
859.5885	1099.2371	9851.1	8115.9
859.7334	1101.1987	9850	8079.65
859.8784	1103.1596	9913.4	8091.4
860.0234	1105.1198	9804.2	8044.8
860.1683	1107.0793	9887.9	8030.1
860.3133	1109.0381	9824.3	8007.45
860.4582	1110.9961	10023.45	8003.2
860.6031	1112.9534	9822.55	7958.95
860.7481	1114.9099	9844.55	7996.25
860.893	1116.8658	9792.4	7956.05
861.0379	1118.8209	10360.4	7975.7
861.1829	1120.7752	9926.15	7970.85
861.3278	1122.7289	9763.4	7971.85
861.4727	1124.6818	9724.6	7973.6
861.6176	1126.634	9751.55	7958.05
861.7625	1128.5855	9685.05	7945.85
861.9074	1130.5362	9705.2	7946.45
862.0523	1132.4862	9686.75	7919.4
862.1971	1134.4355	9778.8	7901.55
862.342	1136.384	9747.5	7943.85
862.4869	1138.3318	9695.15	7932.55
862.6318	1140.2789	9721.15	7918
862.7766	1142.2253	9678.2	7910.65
862.9215	1144.1709	9693.4	7914.9
863.0663	1146.1158	9699.75	7923.3
863.2112	1148.0599	10158.25	7895.75
863.356	1150.0034	9840.75	7908
863.5008	1151.9461	9687.7	7900.3
863.6456	1153.888	9713.9	7909.85
863.7905	1155.8293	9595.5	7850.65
863.9353	1157.7698	9729.65	7846.3
864.0801	1159.7096	9707.2	7824.75
864.2249	1161.6486	9623.8	7831.3
864.3697	1163.5869	9629.7	7870.6
864.5145	1165.5245	9580.55	7855.4
864.6592	1167.4613	9553.7	7822.1
864.804	1169.3975	9527.25	7834.3
864.9488	1171.3328	9540.05	7859.55
865.0935	1173.2675	9554.1	7839.5
865.2383	1175.2014	9570.8	7799
865.3831	1177.1346	9592.9	7775.75
865.5278	1179.067	9545.2	7767.7
865.6725	1180.9988	9632.9	7746.65
865.8173	1182.9297	9536.9	7734.8
865.962	1184.86	9566.2	7738.2
866.1067	1186.7895	9537.65	7747.15
866.2514	1188.7183	9546.9	7759.1
866.3961	1190.6463	9598.15	7756.3
866.5408	1192.5737	9634.3	7765.25
866.6855	1194.5002	9536.4	7750.65
866.8302	1196.4261	9473	7730.45
866.9749	1198.3512	9538.1	7728.4
867.1195	1200.2756	9516.85	7726.2
867.2642	1202.1992	9475.6	7672.4
867.4088	1204.1221	9435.75	7679.8
867.5535	1206.0443	9463.45	7673.5
867.6981	1207.9657	9687.6	7681.75
867.8428	1209.8864	9636.45	7672.1
867.9874	1211.8064	9612.65	7654.7
868.132	1213.7256	9597	7688.8
868.2766	1215.6441	9460.7	7671.15
868.4212	1217.5618	9487.65	7663
868.5658	1219.4789	9492.75	7663.65
868.7104	1221.3951	9473.9	7651.2
868.855	1223.3107	9400.65	7640.1
868.9996	1225.2255	9392.95	7621.85
869.1441	1227.1396	9420.3	7603.2
869.2887	1229.0529	9426.8	7593.8
869.4333	1230.9655	9392.15	7555.15
869.5778	1232.8773	9430.1	7566.25
869.7223	1234.7885	9437.7	7585.2
869.8669	1236.6989	9483.85	7587.5
870.0114	1238.6085	9437.25	7606.55
870.1559	1240.5174	9449.4	7592.7
870.3004	1242.4256	9477.8	7602.15
870.4449	1244.333	9411.95	7585.7
870.5894	1246.2397	9384.3	7610.05
870.7339	1248.1457	9311.55	7567.9
870.8783	1250.0509	9346.05	7538.6
871.0228	1251.9554	9374.1	7542.7
871.1673	1253.8591	9353.7	7532.4
871.3117	1255.7621	9327.35	7529
871.4562	1257.6644	9383.95	7533
871.6006	1259.5659	9310.25	7548.85
871.745	1261.4667	9233.45	7522.1
871.8894	1263.3667	9266.35	7514.45
872.0338	1265.266	9222.9	7488.2
872.1782	1267.1646	9220.25	7471.55
872.3226	1269.0624	9217.95	7412.75
872.467	1270.9595	9249.65	7406.3
872.6114	1272.8558	9360.85	7379.7
872.7557	1274.7514	9272.4	7381.55
872.9001	1276.6463	9206.75	7383.65
873.0444	1278.5404	9192.75	7395.2
873.1888	1280.4338	9168.5	7372.05
873.3331	1282.3264	9122.45	7366.65
873.4774	1284.2183	9154.25	7340.1
873.6217	1286.1095	9101.55	7318.7
873.7661	1287.9999	9173	7342.9
873.9103	1289.8896	9096.85	7326.55
874.0546	1291.7785	9005.95	7283.65
874.1989	1293.6667	9103.9	7268.35
874.3432	1295.5542	9093.4	7278.05
874.4874	1297.4409	9099.05	7266.35
874.6317	1299.3269	9098.45	7258.15
874.7759	1301.2121	9140.55	7272.95
874.9202	1303.0966	9098.8	7264.8
875.0644	1304.9803	9046.95	7249.65
875.2086	1306.8633	9017.2	7244.95
875.3528	1308.7456	8991.3	7213.45
875.497	1310.6271	8960.6	7187.55
875.6412	1312.5079	8938.5	7176.7
875.7853	1314.3879	8983.85	7182.9
875.9295	1316.2672	8945.6	7148.95
876.0737	1318.1458	8923.2	7146.05
876.2178	1320.0236	8895.6	7139.85
876.3619	1321.9006	8947.55	7137.1
876.5061	1323.7769	9095.4	6964.75
876.6502	1325.6525	8985.45	7086.7
876.7943	1327.5273	8951.7	7133.65
876.9384	1329.4014	8934.75	7130.3
877.0825	1331.2748	8874.5	7116.6
877.2266	1333.1474	8962.65	7136.05
877.3706	1335.0192	8899.6	7107.15
877.5147	1336.8903	8882.95	7109.75
877.6587	1338.7607	8890.9	7095.9
877.8028	1340.6303	8898.6	7124
877.9468	1342.4992	8890.85	7118.6
878.0908	1344.3674	8899.15	7105.15
878.2348	1346.2348	8899.5	7145.45
878.3788	1348.1014	8885.7	7126.7
878.5228	1349.9673	8875.95	7112.65
878.6668	1351.8325	8980.8	7126.65
878.8108	1353.6969	8963.3	7112.25
878.9547	1355.5606	8905.25	7082
879.0987	1357.4235	8906.4	7082.15
879.2426	1359.2857	8857.35	7031.55
879.3865	1361.1471	8830.95	7019.95
879.5304	1363.0078	8911.65	6995.1
879.6743	1364.8677	8820.35	6956.2
879.8182	1366.7269	8739.6	6958.85
879.9621	1368.5854	8688.55	6945.95
880.106	1370.4431	8795.35	6953.6
880.2498	1372.3	8855.8	6942.7
880.3937	1374.1563	8755	6922.45
880.5375	1376.0117	8737	6889.45
880.6814	1377.8665	8657.4	6863.6
880.8252	1379.7204	8603.55	6818.3
880.969	1381.5737	8855.9	6808.9
881.1128	1383.4262	8673.5	6796
881.2566	1385.2779	8620.25	6773.7
881.4003	1387.1289	8592.5	6773.2
881.5441	1388.9791	8535.15	6777.8
881.6879	1390.8286	8551.4	6780
881.8316	1392.6774	8513.3	6744.6
881.9753	1394.5254	8454.25	6730.75
882.1191	1396.3727	8729.1	6735.95
882.2628	1398.2192	8540.85	6728.25
882.4065	1400.0649	8502.85	6689.65
882.5501	1401.91	8667.5	6689.25
882.6938	1403.7542	8506.45	6682.85
882.8375	1405.5978	8512.5	6650.8
882.9811	1407.4405	8458.1	6634.95
883.1248	1409.2826	8442.4	6636.2
883.2684	1411.1239	8406.25	6604
883.412	1412.9644	8476.95	6582.85
883.5556	1414.8042	8457.7	6581.75
883.6992	1416.6432	8502.3	6603.65
883.8428	1418.4815	8524.25	6598.2
883.9863	1420.3191	8463.35	6570.6
884.1299	1422.1559	8400.05	6559.5
884.2734	1423.9919	8344.7	6560.15
884.417	1425.8272	8703.5	6543.85
884.5605	1427.6618	8490.55	6543.6
884.704	1429.4956	8367.2	6500.9
884.8475	1431.3286	8373.6	6515.8
884.991	1433.161	8488.35	6520.1
885.1345	1434.9925	8682.55	6506.1
885.2779	1436.8233	8456.15	6496.65
885.4214	1438.6534	8320.15	6471.05
885.5648	1440.4827	8282.2	6466.85
885.7082	1442.3113	8315.7	6455.45
885.8516	1444.1391	8264.15	6463.85
885.995	1445.9662	8292.3	6455.7
886.1384	1447.7925	8299.95	6468.55
886.2818	1449.6181	8256.4	6458.15
886.4252	1451.4429	8284.3	6448.45
886.5685	1453.267	8282.45	6470
886.7119	1455.0903	8234.95	6463.1
886.8552	1456.9129	8287.65	6455.95
886.9985	1458.7347	8317.2	6453.6
887.1418	1460.5558	8229.5	6442.65
887.2851	1462.3761	8227.9	6443.4
887.4284	1464.1957	8247.25	6480.15
887.5716	1466.0145	8281.2	6441.75
887.7149	1467.8326	8223.8	6451.6
887.8581	1469.6499	8224.85	6434.5
888.0013	1471.4665	8215.2	6437.25
888.1445	1473.2824	8260.2	6438.5
888.2877	1475.0974	8236.85	6446.8
888.4309	1476.9118	8267	6471.25
888.5741	1478.7254	8234.4	6458.35
888.7172	1480.5382	8261.5	6482.1
888.8604	1482.3503	8246.05	6506
889.0035	1484.1616	8252.6	6508.05
889.1466	1485.9722	8332.2	6519.7
889.2897	1487.782	8273.65	6496.7
889.4328	1489.5911	8379.55	6496.1
889.5759	1491.3995	8367	6538.1
889.719	1493.207	8317.55	6528
889.862	1495.0139	8494.05	6570.15
890.0051	1496.82	8452.25	6591.5
890.1481	1498.6253	8366.3	6564.6
890.2911	1500.4299	8359.95	6579.7
890.4341	1502.2337	8609.8	6607.7
890.5771	1504.0368	8639.05	6638.75
890.7201	1505.8391	8548	6650.5
890.863	1507.6407	8512.65	6690.15
891.006	1509.4415	8505.6	6711.5
891.1489	1511.2416	8505.1	6710.75
891.2918	1513.0409	8525.15	6691.25
891.4347	1514.8395	8557.35	6695.2
891.5776	1516.6373	8519.7	6695.55
891.7205	1518.4344	8536.55	6720.6
891.8633	1520.2308	8567.4	6740.55
892.0062	1522.0263	8506.95	6738
892.149	1523.8212	8506.65	6733.8
892.2918	1525.6152	8555.4	6758.4
892.4346	1527.4085	8472.1	6743.75
892.5774	1529.2011	8562.7	6751.55
892.7202	1530.9929	8545.85	6767.5
892.863	1532.784	8594.4	6787.9
893.0057	1534.5743	8678.2	6819.1
893.1484	1536.3639	8771.9	6849.7
893.2912	1538.1527	8787.35	6871.65
893.4339	1539.9408	8706.9	6860.6
893.5766	1541.7281	8684.25	6887.2
893.7192	1543.5146	8703.15	6935.05
893.8619	1545.3004	8781.2	6986.65
894.0045	1547.0855	8781	7027.35
894.1472	1548.8698	8901.75	7119.45
894.2898	1550.6534	9010.25	7211.75
894.4324	1552.4362	9143.4	7326.25
894.575	1554.2182	9306.9	7457.5
894.7176	1555.9995	9279.85	7498.7
894.8601	1557.7801	9197.85	7454.45
895.0027	1559.5599	9381	7402.95
895.1452	1561.3389	9205.45	7388.75
895.2877	1563.1172	9246.7	7411
895.4302	1564.8948	9176.2	7442.95
895.5727	1566.6715	9278.25	7507.85
895.7152	1568.4476	9289.85	7555.45
895.8576	1570.2229	9363.55	7633.95
896.0001	1571.9974	9474.45	7684.65
896.1425	1573.7712	9558.8	7773.9
896.2849	1575.5442	9619.15	7826.8
896.4273	1577.3165	9730.05	7934.45
896.5697	1579.088	9785.1	7979.5
896.712	1580.8588	9893.6	8078.4
896.8544	1582.6288	10010.9	8167.85
896.9967	1584.3981	10067.6	8267.3
897.139	1586.1666	10118.9	8331.85
897.2813	1587.9344	10211.05	8449.2
897.4236	1589.7014	10401	8561.2
897.5659	1591.4676	10429.95	8639.75
897.7081	1593.2332	10491.85	8726.15
897.8504	1594.9979	10604.15	8805.55
897.9926	1596.7619	10821.45	8927.35
898.1348	1598.5252	11138.2	9008.25
898.277	1600.2877	11095.35	9164.3
898.4192	1602.0494	11173.55	9271.85
898.5614	1603.8104	11235.6	9386.05
898.7035	1605.5707	11363.15	9533.05
898.8456	1607.3302	11451.25	9656
898.9878	1609.0889	11542.35	9772.2
899.1298	1610.8469	11659.9	9889.4
899.2719	1612.6041	11662.7	9934.9
899.414	1614.3606	11832.15	10089.95
899.5561	1616.1163	11972.9	10188.15
899.6981	1617.8713	12071.9	10296.6
899.8401	1619.6255	12141.95	10369.5
899.9821	1621.379	12257.6	10424.55
900.1241	1623.1317	12377.65	10536.95
900.2661	1624.8837	12421.4	10615.25
900.408	1626.6349	12500.15	10683.2
900.55	1628.3854	12515.8	10721.7
900.6919	1630.1351	12569.15	10803.1
900.8338	1631.884	12568.35	10820.05
900.9757	1633.6322	12634.55	10825.45
901.1176	1635.3797	12612.95	10849.65
901.2594	1637.1264	12667.35	10841.85
901.4012	1638.8723	12745.4	10867.1
901.5431	1640.6175	12636.8	10820.4
901.6849	1642.362	12697.25	10764.35
901.8267	1644.1057	12656.85	10734.65
901.9684	1645.8486	12611.9	10726.45
902.1102	1647.5908	12459	10670.6
902.2519	1649.3322	12342.95	10598.55
902.3937	1651.0729	12311.75	10559.3
902.5354	1652.8128	12222	10488.25
902.6771	1654.552	12170.4	10402.95
902.8187	1656.2904	12034.05	10265.55
902.9604	1658.0281	11954.55	10185.65
903.102	1659.765	11895.05	10101.15
903.2437	1661.5012	11798.25	9974.65
903.3853	1663.2366	11658.55	9871.6
903.5268	1664.9712	11605.95	9748
903.6684	1666.7051	11487.4	9619.35
903.81	1668.4383	11326.5	9454.5
903.9515	1670.1707	11166.05	9348.45
904.093	1671.9023	11008.3	9219.75
904.2345	1673.6332	10825.5	9078.6
904.376	1675.3634	10720.15	8966.65
904.5175	1677.0928	10697.75	8832.95
904.6589	1678.8214	10484.4	8688.95
904.8004	1680.5493	10320.35	8524.75
904.9418	1682.2764	10183.9	8373
905.0832	1684.0028	10237.55	8227.4
905.2246	1685.7284	10144.35	8108.55
905.3659	1687.4533	9845.45	7965.95
905.5073	1689.1774	9657.75	7817.85
905.6486	1690.9008	9486.3	7690.5
905.7899	1692.6234	9329.9	7536
905.9312	1694.3453	9237.85	7404.65
906.0725	1696.0664	9039.05	7265.55
906.2137	1697.7867	8978.8	7116.25
906.355	1699.5063	8780.35	6982.65
906.4962	1701.2252	8664	6856.9
906.6374	1702.9433	8506.35	6724.35
906.7786	1704.6606	8460.65	6624.75
906.9198	1706.3772	8271.9	6497.2
907.0609	1708.0931	8180.65	6376.3
907.202	1709.8082	8005.4	6263.4
907.3432	1711.5225	7905.95	6155.9
907.4843	1713.2361	7795.5	6045.15
907.6253	1714.9489	7771.65	5952.15
907.7664	1716.661	7680.15	5864.25
907.9074	1718.3723	7570.5	5744.8
908.0485	1720.0829	7512.65	5648.8
908.1895	1721.7927	7365.55	5552.55
908.3305	1723.5018	7246.75	5443.6
908.4714	1725.2101	7389.55	5375.3
908.6124	1726.9177	7174.8	5298.4
908.7533	1728.6245	7121.1	5227.45
908.8942	1730.3306	6970.75	5160.75
909.0351	1732.0359	6855.85	5094.5
909.176	1733.7404	6930.2	5019.85
909.3169	1735.4442	6809.8	4964.55
909.4577	1737.1473	6735.35	4920.8
909.5985	1738.8496	6630.95	4835.85
909.7393	1740.5511	6578.55	4782.65
909.8801	1742.2519	6559.15	4728.65
910.0209	1743.9519	6502.75	4679.35
910.1616	1745.6512	6406.05	4608.5
910.3023	1747.3498	6349.35	4571.55
910.443	1749.0476	6305.8	4502.8
910.5837	1750.7446	6234.3	4471.65
910.7244	1752.4409	6255.95	4440.05
910.8651	1754.1364	6197.45	4388.45
911.0057	1755.8312	6163.7	4350.85
911.1463	1757.5252	6115.7	4306.95
911.2869	1759.2185	6021.7	4256.05
911.4275	1760.911	5991.55	4243.45
911.568	1762.6028	6034.15	4200.4
911.7086	1764.2938	6022.45	4176.8
911.8491	1765.984	5949.15	4128.3
911.9896	1767.6736	5877.85	4097.5
912.1301	1769.3623	5869.6	4072.75
912.2705	1771.0503	5790.45	4023.3
912.411	1772.7376	5740.25	3998.65
912.5514	1774.4241	5767.75	3976.65
912.6918	1776.1098	5697.2	3955.95
912.8322	1777.7948	5716.5	3925.35
912.9725	1779.4791	5728.1	3887.5
913.1129	1781.1626	5677.65	3864
913.2532	1782.8453	5595.2	3839.8
913.3935	1784.5273	5617.1	3802.6
913.5338	1786.2086	5608.9	3792.4
913.6741	1787.8891	5564.4	3743.3
913.8143	1789.5688	5509.35	3729.4
913.9545	1791.2478	5571.05	3719.5
914.0947	1792.926	5426.8	3679.05
914.2349	1794.6035	5441.55	3675.5
914.3751	1796.2802	5395.45	3633.8
914.5153	1797.9562	5443.15	3619.7
914.6554	1799.6314	5316.1	3590.55
914.7955	1801.3059	5324.15	3583.75
914.9356	1802.9796	5359.85	3571.6
915.0756	1804.6526	5304.1	3555.75
915.2157	1806.3248	5296.5	3526.65
915.3557	1807.9963	5266	3503.35
915.4957	1809.667	5346.35	3523.95
915.6357	1811.337	5320.2	3493.65
915.7757	1813.0062	5220.75	3480.95
915.9156	1814.6747	5240.9	3479.15
916.0555	1816.3424	5190.05	3463.5
916.1955	1818.0094	5196	3450.25
916.3353	1819.6756	5196.2	3440.5
916.4752	1821.3411	5173.55	3429.8
916.6151	1823.0058	5279.1	3416.45
916.7549	1824.6697	5293.2	3399.15
916.8947	1826.3329	5182.35	3375.5
917.0345	1827.9954	5256.55	3369.35
917.1742	1829.6571	5131.55	3361.45
917.314	1831.3181	5093.9	3354.7
917.4537	1832.9783	5115.65	3346.3
917.5934	1834.6377	5131.6	3327.9
917.7331	1836.2964	5110.85	3323.5
917.8727	1837.9544	5080.25	3309.45
918.0124	1839.6116	5063.2	3295.8
918.152	1841.2681	5054.6	3293.9
918.2916	1842.9238	5074.05	3281.45
918.4312	1844.5787	5039	3262.75
918.5707	1846.2329	5036	3238.55
918.7103	1847.8864	5270.65	3256.15
918.8498	1849.5391	5108.5	3241.55
918.9893	1851.191	4987.95	3236.75
919.1287	1852.8422	4995.95	3240.9
919.2682	1854.4927	4994.25	3231.3
919.4076	1856.1424	4928.8	3195.4
919.547	1857.7913	4934.95	3216
919.6864	1859.4395	4983.1	3207.55
919.8258	1861.087	4935.45	3194
919.9651	1862.7337	5026.25	3204.55
920.1044	1864.3796	5003.15	3184.1
920.2437	1866.0248	5013	3182
920.383	1867.6693	5021.55	3163.3
920.5223	1869.313	4984.75	3157.05
920.6615	1870.9559	5078.5	3171.1
920.8007	1872.5981	4967.85	3151.7
920.9399	1874.2396	4883.7	3153.85
921.0791	1875.8803	4931.05	3151.4
921.2183	1877.5202	4867.65	3130.05
921.3574	1879.1594	4968.55	3157.7
921.4965	1880.7979	4934.3	3138.8
921.6356	1882.4356	5376.85	3137.85
921.7747	1884.0726	5108.9	3121.4
921.9137	1885.7088	4935.1	3099.7
922.0527	1887.3442	4906.7	3098.6
922.1917	1888.9789	4896.75	3084.4
922.3307	1890.6129	4875.9	3108
922.4697	1892.2461	4909.8	3093.8
922.6086	1893.8786	4906.8	3112.05
922.7475	1895.5103	5283.2	3105.2
922.8864	1897.1412	5036.3	3080.8
923.0253	1898.7714	4910.75	3077.25
923.1641	1900.4009	4887.8	3086.75
923.3029	1902.0296	4924.6	3083.2
923.4417	1903.6576	4856.85	3080.95
923.5805	1905.2848	4849.45	3079.75
923.7193	1906.9113	4833.8	3070.15
923.858	1908.537	4818.1	3082.05
923.9967	1910.162	4886.3	3074.6
924.1354	1911.7862	4880.25	3092.05
924.2741	1913.4097	4903.65	3081
924.4127	1915.0324	4831.15	3088.3
924.5514	1916.6544	4876.55	3098.5
924.69	1918.2756	4989.15	3093.35
924.8286	1919.8961	4946.2	3084.2
924.9671	1921.5158	4955.35	3082.65
925.1057	1923.1348	4901.95	3095
925.2442	1924.7531	4926.25	3099.4
925.3827	1926.3705	4912.05	3081.25
925.5211	1927.9873	4918.3	3097.45
925.6596	1929.6033	4852.95	3091.25
925.798	1931.2185	4852.45	3107.1
925.9364	1932.833	4913.7	3099.5
926.0748	1934.4468	4847.1	3082.8
926.2131	1936.0598	4804.5	3088.55
926.3515	1937.672	4900.15	3106.2
926.4898	1939.2836	4887.1	3109.05
926.628	1940.8943	4873.9	3100.4
926.7663	1942.5043	4893.3	3103.35
926.9045	1944.1136	4973.9	3108.1
927.0428	1945.7221	4968.7	3118.2
927.181	1947.3299	4917.35	3123.5
927.3191	1948.9369	4871.5	3123.25
927.4573	1950.5432	4905.75	3129.7
927.5954	1952.1487	4855.05	3133.1
927.7335	1953.7535	4868.2	3150.85
927.8716	1955.3575	4908.7	3161.35
928.0096	1956.9608	4963.3	3140.5
928.1477	1958.5634	4951.5	3151.15
928.2857	1960.1652	5018.05	3156.35
928.4237	1961.7662	4936.05	3166.05
928.5616	1963.3665	4924.2	3166.6
928.6996	1964.9661	4936.65	3155.15
928.8375	1966.5649	4964	3160.35
928.9754	1968.163	5020.9	3188.55
929.1132	1969.7603	4947.7	3188.55
929.2511	1971.3569	4960.85	3180.35
929.3889	1972.9527	4974.55	3191.85
929.5267	1974.5478	4971.65	3191.35
929.6645	1976.1421	5003.05	3199.9
929.8022	1977.7357	5041.05	3203.45
929.94	1979.3285	5090.9	3195.5
930.0777	1980.9206	5213.9	3217.6
930.2153	1982.512	5176.4	3201.85
930.353	1984.1026	5090.85	3202.4
930.4906	1985.6925	5077.95	3201.65
930.6282	1987.2816	4989.2	3228.1
930.7658	1988.8699	5001.15	3233.2
930.9034	1990.4576	5026.1	3242.9
931.0409	1992.0445	5173.45	3269.5
931.1784	1993.6306	5047.25	3258.35
931.3159	1995.216	5064.55	3278.9
931.4534	1996.8006	5073.45	3270.95
931.5908	1998.3845	5067.35	3282.7
931.7282	1999.9677	5268.55	3295.6
931.8656	2001.5501	5165.5	3284
932.003	2003.1318	5049.55	3280.8
932.1403	2004.7127	5119.75	3316.6
932.2777	2006.2928	5125.25	3305.9
932.415	2007.8723	5355.15	3326.05
932.5522	2009.451	5128.3	3307.95
932.6895	2011.0289	5090.2	3337.4
932.8267	2012.6061	5169.35	3339.65
932.9639	2014.1826	5183	3346.15
933.1011	2015.7583	5172.1	3339.25
933.2382	2017.3332	5237.45	3339.1
933.3753	2018.9075	5485.45	3344.75
933.5124	2020.4809	5288.1	3344.9
933.6495	2022.0537	5178.75	3348.2
933.7866	2023.6257	5178.15	3363.25
933.9236	2025.1969	5135.4	3362.8
934.0606	2026.7674	5105.6	3366.7
934.1976	2028.3372	5201.3	3399
934.3345	2029.9062	5094.15	3375.15
934.4714	2031.4745	5261.65	3392.8
934.6084	2033.042	5206	3398.9
934.7452	2034.6088	5255.1	3409.4
934.8821	2036.1748	5559.9	3408.1
935.0189	2037.7401	5323.95	3416.6
935.1557	2039.3047	5281.7	3409.15
935.2925	2040.8685	5162.65	3406.2
935.4292	2042.4316	5151.5	3404.85
935.566	2043.9939	5220.8	3418.15
935.7027	2045.5555	5188.9	3422
935.8394	2047.1163	5207.35	3438.75
935.976	2048.6764	5271.15	3433.25
936.1126	2050.2358	5445.8	3426.25
936.2492	2051.7944	5315.85	3443.45
936.3858	2053.3523	5247.45	3435.05
936.5224	2054.9094	5249.15	3436
936.6589	2056.4658	5340.9	3450.35
936.7954	2058.0214	5277.9	3436.9
936.9319	2059.5763	5319.3	3434.85
937.0683	2061.1305	5234.85	3462.2
937.2047	2062.6839	5256.95	3454
937.3411	2064.2366	5252.2	3478.55
937.4775	2065.7886	5190.05	3466.65
937.6139	2067.3398	5223.55	3467.5
937.7502	2068.8902	5217.6	3462.5
937.8865	2070.4399	5195.8	3464.55
938.0228	2071.9889	5232.1	3465.5
938.159	2073.5371	5257.25	3468.75
938.2952	2075.0846	5219.75	3468.65
938.4314	2076.6314	5203.5	3458.5
938.5676	2078.1774	5424.95	3469.95
938.7037	2079.7227	5316.75	3473
938.8399	2081.2672	5232.8	3483.05
938.976	2082.811	5244.65	3500.85
939.112	2084.354	5240.3	3503
939.2481	2085.8963	5294.65	3502.05
939.3841	2087.4379	5316	3500.7
939.5201	2088.9787	5322.75	3492.1
939.656	2090.5188	5323.15	3509.15
939.792	2092.0582	5337.35	3516.45
939.9279	2093.5968	5359.2	3493.65
940.0638	2095.1346	5306.5	3500
940.1996	2096.6718	5338.7	3502.55
940.3354	2098.2082	5269.95	3481.45
940.4713	2099.7438	5309.3	3495.45
940.607	2101.2787	5297.45	3492.1
940.7428	2102.8129	5326.25	3486.2
940.8785	2104.3463	5282.25	3485.75
941.0142	2105.879	5231.75	3474.3
941.1499	2107.411	5213.65	3484.1
941.2855	2108.9422	5230.6	3473.15
941.4212	2110.4726	5248.3	3475.4
941.5568	2112.0024	5319.05	3472.1
941.6923	2113.5314	5262.55	3454.75
941.8279	2115.0596	5240.55	3468.6
941.9634	2116.5871	5213.6	3443.25
942.0989	2118.1139	5199.35	3446.05
942.2343	2119.64	5167.35	3454.55
942.3698	2121.1653	5138.4	3435
942.5052	2122.6898	5178	3428.15
942.6406	2124.2137	5270.15	3420.8
942.7759	2125.7368	5195.6	3402.1
942.9113	2127.2591	5198.95	3403.55
943.0466	2128.7807	5212.8	3397.25
943.1818	2130.3016	5193.65	3391.3
943.3171	2131.8217	5181.45	3366.75
943.4523	2133.3411	5179.95	3362.85
943.5875	2134.8598	5085	3330.15
943.7227	2136.3777	5054.5	3334.35
943.8578	2137.8949	5125.4	3331.1
943.9929	2139.4114	5090	3301.75
944.128	2140.9271	5090.9	3321.05
944.2631	2142.4421	5138.4	3299.45
944.3981	2143.9563	5112.9	3282.15
944.5331	2145.4698	5455.45	3278.25
944.6681	2146.9826	5264.8	3282.3
944.8031	2148.4946	5150.45	3271.65
944.938	2150.0059	5079.85	3262.2
945.0729	2151.5165	5042.6	3269.95
945.2078	2153.0263	5028.9	3260.05
945.3426	2154.5354	5017.8	3256.15
945.4774	2156.0437	5021.1	3241.65
945.6122	2157.5513	5019.45	3214.4
945.747	2159.0582	4996.5	3195.7
945.8817	2160.5644	4972.5	3188.3
946.0164	2162.0698	4951.7	3176.95
946.1511	2163.5745	4937.1	3159.35
946.2857	2165.0784	4999.95	3132.7
946.4204	2166.5816	4921.95	3139.3
946.555	2168.0841	4929.8	3099.95
946.6895	2169.5858	4840.15	3106.85
946.8241	2171.0868	4903.45	3102.65
946.9586	2172.587	4884.15	3082.55
947.0931	2174.0866	4928.6	3071.4
947.2275	2175.5854	4832.85	3054.2
947.362	2177.0834	4806.25	3046.3
947.4964	2178.5807	4845.1	3045.5
947.6307	2180.0773	4798.15	3015.15
947.7651	2181.5732	4793.45	2987.55
947.8994	2183.0683	4918.3	2978.6
948.0337	2184.5627	4835.65	2963.3
948.168	2186.0564	4749.9	2949.95
948.3022	2187.5493	4824.25	2960.2
948.4364	2189.0415	4861.25	2957.8
948.5706	2190.5329	4726.35	2923.15
948.7047	2192.0236	4691.1	2911.1
948.8389	2193.5136	4689.75	2901.8
948.973	2195.0029	4631.9	2894.7
949.107	2196.4914	4676.9	2872.15
949.2411	2197.9792	4630.4	2855.3
949.3751	2199.4662	4616.45	2829.35
949.5091	2200.9525	4629.55	2810.1
949.643	2202.4381	4584.5	2801.95
949.7769	2203.923	4504.95	2795.2
949.9108	2205.4071	4620.2	2780.95
950.0447	2206.8905	4709.1	2765.35
950.1785	2208.3731	4585.3	2767.85
950.3124	2209.8551	4497.25	2748.95
950.4461	2211.3363	4447.85	2731.35
950.5799	2212.8167	4433.65	2722.45
950.7136	2214.2964	4490.35	2709.45
950.8473	2215.7754	4454.6	2681.3
950.981	2217.2537	4476.3	2680.25
951.1146	2218.7312	4524.5	2682
951.2482	2220.208	4460.35	2651.55
951.3818	2221.6841	4414.45	2627.8
951.5154	2223.1595	4383.75	2610.75
951.6489	2224.6341	4364.95	2620.5
951.7824	2226.1079	4343.05	2597.45
951.9159	2227.5811	4292.85	2581.9
952.0493	2229.0535	4332.4	2589.1
952.1827	2230.5252	4423.7	2567.1
952.3161	2231.9961	4331.1	2538.05
952.4495	2233.4664	4332.05	2538.05
952.5828	2234.9359	4299.2	2514.4
952.7161	2236.4046	4273.85	2503.5
952.8494	2237.8727	4267.2	2484.6
952.9826	2239.34	4301.85	2499.25
953.1158	2240.8065	4209.25	2468.5
953.249	2242.2724	4207.35	2458.55
953.3821	2243.7375	4181.4	2443.1
953.5153	2245.2019	4142.9	2438.4
953.6484	2246.6655	4151.65	2414
953.7814	2248.1285	4140.25	2403.95
953.9145	2249.5907	4759.9	2431.4
954.0475	2251.0521	4298.9	2371.85
954.1804	2252.5129	4202.05	2372.25
954.3134	2253.9729	4177.05	2362.95
954.4463	2255.4322	4192.75	2353.25
954.5792	2256.8907	4151.45	2338.15
954.712	2258.3485	4094.35	2317.25
954.8449	2259.8056	4077.05	2317.6
954.9777	2261.262	4386.15	2314.75
955.1104	2262.7176	4132.1	2292.2
955.2432	2264.1725	4157.95	2285.85
955.3759	2265.6267	4036.8	2254.4
955.5086	2267.0802	4013.95	2250.45
955.6412	2268.5329	4104.55	2249.9
955.7739	2269.9849	4002.75	2237.3
955.9064	2271.4362	4263.55	2214.8
956.039	2272.8867	4104.25	2212.25
956.1715	2274.3366	4006.55	2212.5
956.304	2275.7856	3968.25	2206.7
956.4365	2277.234	4000.05	2205.4
956.569	2278.6817	3936.25	2194.5
956.7014	2280.1286	3952.4	2178
956.8338	2281.5747	3983.4	2177.05
956.9661	2283.0202	3925.05	2150
957.0984	2284.4649	3986.3	2147.65
957.2307	2285.9089	3920.3	2134.05
957.363	2287.3522	4035.65	2132.3
957.4952	2288.7948	3934.6	2106.85
957.6274	2290.2366	3881.95	2100.95
957.7596	2291.6777	3861.95	2099.9
957.8918	2293.1181	3839.95	2095.4
958.0239	2294.5577	4585.35	2096.8
958.156	2295.9967	4070.4	2075.95
958.288	2297.4349	3887.95	2065
958.42	2298.8723	3818.45	2038.75
958.552	2300.3091	3963	2050.3
958.684	2301.7451	3807.65	2033.45
958.8159	2303.1804	3818.35	2021.75
958.9478	2304.615	4013.55	2034.45
959.0797	2306.0488	3863.35	2005.55
959.2115	2307.482	3754.2	1984.95
959.3434	2308.9144	3750.25	2014.15
959.4751	2310.3461	3773.1	1974.5
959.6069	2311.777	3776	1980.6
959.7386	2313.2072	3726.85	1986.9
959.8703	2314.6367	3668.25	1969.1
960.002	2316.0655	3712.6	1963.5
960.1336	2317.4936	3754.35	1963.2
960.2652	2318.9209	3766.25	1965.65
960.3967	2320.3475	3791	1959.9
960.5283	2321.7734	3817.1	1986.4
960.6598	2323.1986	3855.65	2034.35
960.7913	2324.623	3942.85	2085.15
960.9227	2326.0468	4038.15	2171.9
961.0541	2327.4698	4157.5	2296.85
961.1855	2328.892	4186.55	2353.65
961.3169	2330.3136	4166.25	2337.2
961.4482	2331.7344	3957.95	2193.7
961.5795	2333.1545	3858.2	2048.1
961.7107	2334.5739	3755.5	1965.1
961.842	2335.9926	3670.25	1912.9
961.9732	2337.4105	3667.3	1880.2
962.1043	2338.8278	3724.55	1856.1
962.2355	2340.2443	3695.55	1851.95
962.3666	2341.66	3697.1	1844.75
962.4976	2343.0751	3714.05	1831.1
962.6287	2344.4894	3619	1815.6
962.7597	2345.903	3599.3	1807.7
962.8907	2347.3159	4069.6	1805.15
963.0216	2348.7281	3776.4	1790.3
963.1525	2350.1396	3914.85	1785.35
963.2834	2351.5503	3807.75	1772.95
963.4143	2352.9603	3754.2	1761.45
963.5451	2354.3696	3812.1	1770.05
963.6759	2355.7782	3863.5	1747.45
963.8067	2357.186	4011.8	1750.55
963.9374	2358.5932	4750.85	1723.45
964.0681	2359.9996	4176.9	1735.15
964.1988	2361.4053	4074.05	1734.15
964.3294	2362.8103	3971.65	1719.15
964.46	2364.2145	3974.2	1736
964.5906	2365.618	3704.7	1714.6
964.7211	2367.0209	3698.5	1702.85
964.8516	2368.423	3609.1	1704.65
964.9821	2369.8243	3590.4	1708.8
965.1125	2371.225	3513.5	1698.3
965.2429	2372.6249	3516.9	1688.6
965.3733	2374.0242	3618.9	1701.7
965.5037	2375.4227	3805	1701.45
965.634	2376.8205	3576.15	1684.75
965.7643	2378.2175	3665.15	1683.05
965.8945	2379.6139	3485.95	1669.6
966.0248	2381.0095	3416.35	1660.75
966.155	2382.4044	3459.5	1664.9
966.2851	2383.7986	3362.95	1631.15
966.4152	2385.1921	3417.65	1631.9
966.5453	2386.5849	3417.95	1629.15
966.6754	2387.9769	3453.25	1620.65
966.8054	2389.3682	3447.3	1635.3
966.9354	2390.7589	3418.45	1620.4
967.0654	2392.1488	3454.2	1620.45
967.1953	2393.5379	3367.7	1625.3
967.3252	2394.9264	3344.15	1612.65
967.4551	2396.3142	3346.75	1597.7
967.585	2397.7012	3411.35	1595.25
967.7148	2399.0875	3367.6	1582.95
967.8445	2400.4731	3342	1592
967.9743	2401.858	3421.55	1578.25
968.104	2403.2422	3374.2	1565.45
968.2337	2404.6256	3334.95	1562.6
968.3633	2406.0083	3435.8	1567.55
968.4929	2407.3904	3317.75	1545.45
968.6225	2408.7717	3395.7	1546.35
968.7521	2410.1523	3289.35	1548.6
968.8816	2411.5321	3285.35	1536.25
969.0111	2412.9113	3520.65	1531.5
969.1405	2414.2898	3323.35	1512.15
969.2699	2415.6675	3653.45	1517.75
969.3993	2417.0445	3386.8	1517.9
969.5287	2418.4208	3329.75	1506.15
969.658	2419.7964	3353.9	1502.2
969.7873	2421.1713	3282.8	1486.7
969.9165	2422.5455	3409.85	1492.9
970.0458	2423.9189	3319.9	1484.95
970.1749	2425.2916	3203.55	1483.4
970.3041	2426.6637	3230.25	1477.55
970.4332	2428.035	3225.9	1487.6
970.5623	2429.4056	3223.15	1473.7
970.6914	2430.7755	3660	1494.95
970.8204	2432.1446	3368.05	1458.55
970.9494	2433.5131	3306.15	1466.6
971.0784	2434.8808	3288.55	1467.05
971.2073	2436.2479	3263.8	1436.35
971.3362	2437.6142	3292.9	1451.25
971.465	2438.9798	3215.1	1451.1
971.5939	2440.3447	3182.75	1448.85
971.7227	2441.7089	3235.1	1448.1
971.8514	2443.0724	3251.9	1429.1
971.9802	2444.4351	3155.85	1428.6
972.1089	2445.7972	3223.95	1428.25
972.2375	2447.1585	3256.25	1428.65
972.3661	2448.5192	3221.8	1423.75
972.4947	2449.8791	3405.65	1414.2
972.6233	2451.2383	3195.45	1408.3
972.7518	2452.5968	3251.85	1411.8
972.8803	2453.9546	3182.55	1405.95
973.0088	2455.3117	3170.55	1400.25
973.1372	2456.668	3167.35	1407.15
973.2656	2458.0237	3138.95	1391.15
973.394	2459.3786	3122.55	1391.85
973.5223	2460.7329	3103.95	1393.3
973.6506	2462.0864	3219.4	1396.7
973.7789	2463.4392	3212.15	1386.3
973.9071	2464.7913	3134.8	1377.9
974.0353	2466.1427	3111.85	1377.75
974.1635	2467.4934	3152.3	1378.85
974.2916	2468.8434	3136.4	1373.65
974.4197	2470.1927	3091.85	1364.45
974.5478	2471.5413	3104.05	1373.45
974.6758	2472.8891	3171.05	1368.45
974.8038	2474.2363	3360.05	1360.7
974.9317	2475.5827	3133.9	1339.15
975.0597	2476.9284	3090.4	1342.7
975.1876	2478.2735	3088.8	1349.85
975.3154	2479.6178	3062.1	1346.9
975.4433	2480.9614	3086.1	1348.4
975.571	2482.3043	3078.35	1334.45
975.6988	2483.6465	3096.05	1341.3
975.8265	2484.988	3118.65	1333.85
975.9542	2486.3287	3109.75	1315.05
976.0819	2487.6688	3155.3	1319.05
976.2095	2489.0082	3105.85	1322.4
976.3371	2490.3468	3104.15	1324.95
976.4646	2491.6848	3083.1	1314.65
976.5922	2493.022	3165.35	1319.5
976.7197	2494.3586	3022.5	1294.95
976.8471	2495.6944	3014.4	1306.55
976.9745	2497.0296	3306.35	1309.35
977.1019	2498.364	3161.4	1290.3
977.2293	2499.6977	3103.95	1289.15
977.3566	2501.0307	3102.6	1279.4
977.4839	2502.363	3099.4	1277.8
977.6111	2503.6946	3170.1	1272.45
977.7383	2505.0255	3091.85	1270.3
977.8655	2506.3557	2979.75	1260.75
977.9926	2507.6852	3009.9	1262
978.1198	2509.014	2945.65	1250.2
978.2468	2510.3421	2976.3	1262.35
978.3739	2511.6694	3008.75	1248.95
978.5009	2512.9961	3006.35	1240.3
978.6279	2514.3221	3000.9	1242.75
978.7548	2515.6473	3042.4	1238.1
978.8817	2516.9719	3023	1224.3
979.0086	2518.2957	3054.5	1234
979.1354	2519.6189	3091	1235.35
979.2622	2520.9413	3148.6	1232.9
979.389	2522.2631	3037.25	1230.3
979.5157	2523.5841	3001.85	1222.5
979.6424	2524.9045	3058.5	1209.55
979.7691	2526.2241	2965.1	1202.9
979.8957	2527.543	2985.65	1192.6
980.0223	2528.8613	3040.9	1202.15
980.1488	2530.1788	3243.95	1221.75
980.2754	2531.4956	3114.5	1209
980.4018	2532.8118	3219.65	1202
980.5283	2534.1272	3105.85	1196.2
980.6547	2535.4419	3223.1	1186.35
980.7811	2536.7559	3014.25	1177.5
980.9074	2538.0692	3018.8	1180.9
981.0338	2539.3819	2998.25	1180.65
981.16	2540.6938	2955.8	1187.85
981.2863	2542.005	2922.1	1181.85
981.4125	2543.3155	2924.4	1174.7
981.5387	2544.6253	2953	1174.2
981.6648	2545.9344	2969.2	1169.8
981.7909	2547.2429	3202.4	1152.95
981.917	2548.5506	3057.5	1152.8
982.043	2549.8576	3017.4	1156.35
982.169	2551.1639	2971.6	1161.2
982.295	2552.4695	2970.4	1156.95
982.4209	2553.7744	2939.7	1157.95
982.5468	2555.0787	2997	1166.35
982.6726	2556.3822	2922.4	1151.55
982.7985	2557.685	2944	1148.15
982.9243	2558.9871	2889.65	1139.4
983.05	2560.2885	2936.95	1136.5
983.1757	2561.5892	2956.4	1142.6
983.3014	2562.8893	3092.2	1144.7
983.4271	2564.1886	2978.55	1137.2
983.5527	2565.4872	2969.8	1144.05
983.6782	2566.7852	2929.25	1131.25
983.8038	2568.0824	2942.1	1133.65
983.9293	2569.3789	2915.8	1133.35
984.0547	2570.6748	2878.35	1122.55
984.1802	2571.9699	2893.05	1131.6
984.3056	2573.2643	2915.85	1135.1
984.4309	2574.5581	2890.1	1125.9
984.5563	2575.8511	2883.2	1118.25
984.6816	2577.1435	2863.75	1124.5
984.8068	2578.4351	2874.7	1117.95
984.932	2579.7261	3102.3	1117.25
985.0572	2581.0164	2967.35	1124.8
985.1824	2582.3059	3047.4	1123.4
985.3075	2583.5948	2917.3	1125.85
985.4325	2584.883	2838.25	1102
985.5576	2586.1704	2800.3	1096.4
985.6826	2587.4572	2867.3	1108.9
985.8076	2588.7433	3033.3	1108.85
985.9325	2590.0287	2941.3	1108.95
986.0574	2591.3134	2910.55	1106.35
986.1822	2592.5974	2828.5	1093.25
986.3071	2593.8807	2862.85	1088.3
986.4319	2595.1633	2954.65	1090.75
986.5566	2596.4452	2949.7	1080.35
986.6813	2597.7265	2875.75	1092.3
986.806	2599.007	2897.7	1090.2
986.9307	2600.2868	2867.6	1078.3
987.0553	2601.566	2793.25	1092.4
987.1798	2602.8444	2906.8	1093.15
987.3044	2604.1222	2844.55	1089.8
987.4289	2605.3992	2808.45	1085.35
987.5533	2606.6756	2832.1	1070.55
987.6778	2607.9513	2856.25	1083.45
987.8022	2609.2263	2933.7	1080.05
987.9265	2610.5005	2867.3	1069.8
988.0508	2611.7741	2917.4	1071.25
988.1751	2613.047	2912.2	1070.2
988.2994	2614.3193	2857.25	1066.6
988.4236	2615.5908	2793.4	1065.8
988.5477	2616.8616	2789.65	1069.1
988.6719	2618.1317	2805.1	1068.3
988.796	2619.4012	2829.45	1057
988.92	2620.6699	3274.2	1073.1
989.0441	2621.938	2954.25	1053.35
989.1681	2623.2054	2869.85	1051.9
989.292	2624.4721	2877.1	1046.35
989.4159	2625.738	2934.1	1059.1
989.5398	2627.0033	3042.3	1045.05
989.6637	2628.2679	3000.9	1048.95
989.7875	2629.5319	2903.15	1049.65
989.9112	2630.7951	2804.15	1054.55
990.035	2632.0576	3071.9	1060.25
990.1587	2633.3195	2849.2	1046.55
990.2823	2634.5806	2773.6	1058.9
990.4059	2635.8411	2772.95	1048.9
990.5295	2637.1009	2807	1051.1
990.6531	2638.36	2813.05	1037.4
990.7766	2639.6184	2844	1051
990.9001	2640.8761	2864.55	1040
991.0235	2642.1331	2839.95	1049.45
991.1469	2643.3894	2873.15	1052.3
991.2703	2644.6451	2841.1	1046.85
991.3936	2645.9	2768.7	1032
991.5169	2647.1543	3273.75	1051.75
991.6402	2648.4079	2877.3	1032.5
991.7634	2649.6608	2764.95	1031.25
991.8866	2650.913	2780.4	1045.8
992.0097	2652.1645	2779.05	1030.65
992.1328	2653.4153	2779.9	1032.65
992.2559	2654.6655	2822.75	1049.4
992.3789	2655.9149	2886.6	1044.35
992.5019	2657.1637	3063.45	1041.45
992.6249	2658.4118	2901.65	1040.25
992.7478	2659.6592	2820	1046.15
992.8707	2660.9059	2896	1037.15
992.9935	2662.1519	2775.75	1022.05
993.1163	2663.3972	3205.35	1041.2
993.2391	2664.6419	2897.05	1008.6
993.3618	2665.8858	2854.95	1029.1
993.4845	2667.1291	2842.45	1020.05
993.6072	2668.3717	2900.5	1031.2
993.7298	2669.6136	2868.4	1040
993.8524	2670.8548	2854.2	1029.25
993.975	2672.0954	2844.35	1033.2
994.0975	2673.3352	2860.45	1032.95
994.2199	2674.5744	2826.65	1040.95
994.3424	2675.8129	2791.4	1028.3
994.4648	2677.0507	2834.65	1034.25
994.5871	2678.2878	2839.95	1029.85
994.7095	2679.5242	2742.4	1031.65
994.8317	2680.76	2827.9	1028.9
994.954	2681.995	2844.25	1035.7
995.0762	2683.2294	2849.6	1038.85
995.1984	2684.4631	2912.25	1029.6
995.3205	2685.6961	2902.1	1022.7
995.4426	2686.9285	2881.35	1021.55
995.5647	2688.1601	2811.75	1023.65
995.6867	2689.3911	2779.05	1028.05
995.8087	2690.6214	2851.5	1020.15
995.9306	2691.851	2802.5	1031.1
996.0525	2693.0799	2788.55	1020.8
996.1744	2694.3081	2820.95	1020.95
996.2962	2695.5357	2762.65	1019.3
996.418	2696.7625	2768.45	1031.95
996.5398	2697.9887	2769.2	1023.35
996.6615	2699.2142	2827.05	1037.9
996.7832	2700.4391	2799.35	1036.15
996.9048	2701.6632	2813.75	1025.4
997.0264	2702.8867	2796.55	1030.5
997.148	2704.1095	2830.55	1023.9
997.2695	2705.3316	2802.4	1032.55
997.391	2706.553	2833.7	1036.45
997.5125	2707.7737	2734.8	1033.05
997.6339	2708.9938	2785.45	1045.1
997.7553	2710.2132	2795.45	1024.1
997.8766	2711.4319	2996.65	1024.6
997.9979	2712.6499	2972.85	1028.6
998.1192	2713.8673	2911.25	1025.75
998.2404	2715.0839	2827.6	1022.95
998.3616	2716.2999	2871.1	1032.6
998.4827	2717.5152	2831.05	1043.45
998.6038	2718.7298	2889.15	1030.5
998.7249	2719.9438	2809.35	1031.4
998.8459	2721.1571	2818.2	1032.25
998.9669	2722.3696	2888.35	1029.4
999.0879	2723.5816	2870.1	1032.75
999.2088	2724.7928	2816.3	1029.05
999.3297	2726.0034	2785.95	1041.35
999.4505	2727.2132	2817.2	1032.4
999.5713	2728.4224	2855.9	1043.85
999.6921	2729.631	2790.05	1037.1
999.8128	2730.8388	2838.5	1035.65
999.9335	2732.046	2822.3	1043.3
1000.0542	2733.2525	2791.7	1048
1000.1748	2734.4583	2951.85	1054.5
1000.2953	2735.6634	2866.1	1052.65
1000.4159	2736.8679	2833.55	1052.9
1000.5364	2738.0717	2800.55	1042.2
1000.6568	2739.2748	2862.45	1047.45
1000.7772	2740.4773	2816.4	1045.75
1000.8976	2741.679	2812.35	1047.25
1001.0179	2742.8801	2882.9	1053
1001.1382	2744.0805	2857.45	1053.2
1001.2585	2745.2802	2873.25	1053.4
1001.3787	2746.4793	2839.85	1062.55
1001.4989	2747.6777	2856.35	1070
1001.6191	2748.8754	2775.8	1069.55
1001.7392	2750.0724	2773.15	1044.3
1001.8592	2751.2688	2776.5	1060.35
1001.9793	2752.4645	2844.1	1066.4
1002.0992	2753.6595	2947.05	1058.15
1002.2192	2754.8538	2864.1	1069.65
1002.3391	2756.0475	2939.25	1059.2
1002.459	2757.2405	2866.45	1065.25
1002.5788	2758.4328	2909.15	1067.35
1002.6986	2759.6245	2826.35	1060.85
1002.8184	2760.8154	2852.1	1083.1
1002.9381	2762.0057	2839.9	1089.65
1003.0578	2763.1954	2762.8	1079.7
1003.1774	2764.3843	2769.05	1084.25
1003.297	2765.5726	2841.55	1087.7
1003.4166	2766.7602	2826.25	1093.5
1003.5361	2767.9472	2810.8	1093.3
1003.6556	2769.1334	2908.8	1092.25
1003.775	2770.319	2913.45	1102.1
1003.8944	2771.5039	2898.15	1088.65
1004.0138	2772.6882	2943.1	1102.55
1004.1331	2773.8718	2892.25	1094.75
1004.2524	2775.0547	2920.5	1101.15
1004.3716	2776.2369	2945.75	1116.8
1004.4908	2777.4185	2920.9	1116.45
1004.61	2778.5994	2867.7	1115.45
1004.7291	2779.7796	2880.3	1117.85
1004.8482	2780.9592	2862.8	1116.25
1004.9673	2782.1381	2929.8	1120.45
1005.0863	2783.3163	2952.25	1123.55
1005.2052	2784.4938	2885.25	1128.4
1005.3242	2785.6707	3154.25	1137.7
1005.4431	2786.8469	2966.7	1125.65
1005.5619	2788.0225	2885.35	1138.65
1005.6807	2789.1973	2875.25	1120.2
1005.7995	2790.3715	2854	1135.65
1005.9182	2791.5451	2882.85	1134.75
1006.0369	2792.7179	2957.2	1147.5
1006.1556	2793.8901	2891.2	1150.7
1006.2742	2795.0616	3055.8	1153.45
1006.3928	2796.2325	2994.65	1150.75
1006.5113	2797.4027	3032.15	1159.6
1006.6298	2798.5722	3012.4	1168.6
1006.7482	2799.7411	2930.4	1170.8
1006.8667	2800.9093	2997.45	1170.85
1006.985	2802.0768	2966.55	1164.8
1007.1034	2803.2436	2998.85	1161.7
1007.2217	2804.4098	2953.7	1176.05
1007.3399	2805.5754	2962.7	1185
1007.4581	2806.7402	3039.55	1186.35
1007.5763	2807.9044	3179.8	1184.35
1007.6944	2809.0679	3081.75	1189.85
1007.8125	2810.2308	3008.6	1192.85
1007.9306	2811.393	2950.05	1200.25
1008.0486	2812.5545	2993.6	1199.8
1008.1666	2813.7154	3021.05	1207.5
1008.2845	2814.8755	3006.95	1206.3
1008.4024	2816.0351	3019.35	1223.8
1008.5203	2817.1939	2966.35	1226.2
1008.6381	2818.3521	2963.75	1228.6
1008.7559	2819.5097	2917.05	1223.05
1008.8736	2820.6665	2908.5	1234.15
1008.9913	2821.8228	2927.25	1238.05
1009.109	2822.9783	2944.35	1252.8
1009.2266	2824.1332	3034.75	1264.4
1009.3441	2825.2874	3042.35	1269.05
1009.4617	2826.4409	3167.55	1283.2
1009.5792	2827.5938	3074	1277.65
1009.6966	2828.7461	3156.45	1283.45
1009.814	2829.8976	3036.25	1290.3
1009.9314	2831.0485	3017.55	1304.3
1010.0487	2832.1987	3022	1292.1
1010.166	2833.3483	3069.8	1309.25
1010.2833	2834.4972	3047.9	1312.25
1010.4005	2835.6455	3101.65	1319.35
1010.5177	2836.7931	3118.2	1323.35
1010.6348	2837.94	3552.5	1346.9
1010.7519	2839.0863	3238.85	1333.3
1010.869	2840.2319	3220.15	1328.05
1010.986	2841.3768	3264.95	1353.9
1011.1029	2842.5211	3143	1337.25
1011.2199	2843.6647	3228.5	1363.2
1011.3367	2844.8076	3215.05	1364.55
1011.4536	2845.9499	3096.05	1355.35
1011.5704	2847.0916	3137.05	1366.2
1011.6872	2848.2326	3117.7	1370.3
1011.8039	2849.3729	3141.15	1379.5
1011.9206	2850.5125	3128.05	1389.5
1012.0372	2851.6515	3172.05	1401.2
1012.1538	2852.7899	3220.65	1406.85
1012.2704	2853.9275	3245.25	1414.9
1012.3869	2855.0645	3213.75	1422.15
1012.5034	2856.2009	3176.1	1428.1
1012.6198	2857.3366	3285.6	1433.4
1012.7362	2858.4716	3224.25	1442.5
1012.8526	2859.606	3163.2	1440.45
1012.9689	2860.7397	3212.3	1452.3
1013.0852	2861.8728	3289.75	1454.9
1013.2014	2863.0052	3242.55	1445.2
1013.3176	2864.137	3244.75	1462.35
1013.4338	2865.268	3298.3	1489.35
1013.5499	2866.3985	3723.95	1495.2
1013.666	2867.5283	3584.7	1484.05
1013.782	2868.6574	3418.2	1492.6
1013.898	2869.7858	3379.35	1514.15
1014.0139	2870.9136	3333.55	1528.9
1014.1299	2872.0408	3422.7	1544.85
1014.2457	2873.1673	3374.15	1523.6
1014.3615	2874.2931	3331.55	1524.1
1014.4773	2875.4183	3287.4	1538.75
1014.5931	2876.5428	3372.2	1553.3
1014.7088	2877.6667	3377.5	1571
1014.8244	2878.7899	3433.85	1581.15
1014.9401	2879.9124	3372.55	1585.15
1015.0556	2881.0343	3425.15	1598.3
1015.1712	2882.1556	3395.55	1599.25
1015.2867	2883.2762	3406.85	1611.4
1015.4021	2884.3961	3446.05	1629.2
1015.5176	2885.5154	3438.25	1636.45
1015.6329	2886.634	3383.4	1652.25
1015.7483	2887.752	3970.7	1666.85
1015.8636	2888.8693	4058.7	1668.65
1015.9788	2889.986	3630.05	1661.3
1016.094	2891.102	3547.9	1678.55
1016.2092	2892.2173	3516.25	1679.2
1016.3243	2893.332	3509.15	1689.4
1016.4394	2894.4461	3490.8	1708.2
1016.5544	2895.5595	3524.2	1716.55
1016.6694	2896.6722	3559.45	1724.8
1016.7844	2897.7843	3526.2	1732.95
1016.8993	2898.8957	3479.35	1762.8
1017.0142	2900.0065	3465.35	1765.75
1017.129	2901.1166	3552.9	1784.25
1017.2438	2902.2261	3514.7	1766
1017.3586	2903.3349	3605.75	1788.8
1017.4733	2904.4431	3576.9	1799.35
1017.588	2905.5506	3678.2	1822.6
1017.7026	2906.6575	3849.85	1834
1017.8172	2907.7637	3735.55	1839.25
1017.9317	2908.8693	3687.7	1858.7
1018.0462	2909.9742	3647.9	1861.6
1018.1607	2911.0785	3649.55	1876.65
1018.2751	2912.1821	3574.9	1882.45
1018.3895	2913.2851	3617.85	1902.9
1018.5038	2914.3874	3669.55	1917.1
1018.6181	2915.4891	3668.95	1929.8
1018.7324	2916.5901	3756.9	1962.75
1018.8466	2917.6905	3777.25	1962.4
1018.9607	2918.7902	4011.85	1982.9
1019.0749	2919.8893	3911.85	1995.4
1019.189	2920.9877	3811.75	1989.7
1019.303	2922.0854	3904.3	2008.85
1019.417	2923.1826	3903.9	2038.4
1019.531	2924.279	3999.95	2050.4
1019.6449	2925.3749	4010	2060
1019.7587	2926.47	3840	2065.2
1019.8726	2927.5646	3815.75	2092.65
1019.9864	2928.6585	4003.8	2103
1020.1001	2929.7517	4044.75	2111.9
1020.2138	2930.8443	4025.95	2125.75
1020.3275	2931.9362	4045.7	2147.05
1020.4411	2933.0275	3987.75	2164.3
1020.5547	2934.1182	4028.75	2195.8
1020.6682	2935.2082	3965.4	2184.2
1020.7817	2936.2975	3967.55	2193.05
1020.8952	2937.3862	4029.9	2213.8
1021.0086	2938.4743	3975.6	2232.35
1021.122	2939.5617	4238.5	2265.05
1021.2353	2940.6484	4037	2255.6
1021.3486	2941.7346	4075.35	2295.95
1021.4618	2942.82	4150.35	2300.8
1021.575	2943.9049	4159.8	2306.7
1021.6882	2944.9891	4229.25	2321.95
1021.8013	2946.0726	4433.6	2366.7
1021.9144	2947.1555	4231.9	2364.2
1022.0274	2948.2377	4170.15	2374.4
1022.1404	2949.3193	4143.85	2382.65
1022.2534	2950.4003	4154.85	2401.55
1022.3663	2951.4806	4283.25	2438.3
1022.4791	2952.5603	4261.3	2451.4
1022.592	2953.6393	4260.3	2463.85
1022.7047	2954.7177	4266.95	2488.25
1022.8175	2955.7954	4260.15	2502.7
1022.9302	2956.8725	4280.65	2516.6
1023.0428	2957.949	4335.3	2532.9
1023.1554	2959.0248	4433.75	2560.3
1023.268	2960.1	4495.5	2583.8
1023.3805	2961.1745	4684.8	2588.9
1023.493	2962.2484	4470.6	2588.35
1023.6054	2963.3216	4440.85	2637.45
1023.7178	2964.3942	4489.1	2648.45
1023.8302	2965.4662	4506.05	2675.9
1023.9425	2966.5375	4500.45	2697.6
1024.0548	2967.6082	4460.2	2709.6
1024.167	2968.6782	4721.9	2739.25
1024.2792	2969.7476	4846.55	2740
1024.3913	2970.8163	4656.55	2766.9
1024.5034	2971.8844	4605.95	2792.75
1024.6155	2972.9519	4672.95	2820.85
1024.7275	2974.0187	4626.3	2836.3
1024.8394	2975.0849	4631.75	2864
1024.9514	2976.1505	4655.2	2874.35
1025.0632	2977.2154	4625.2	2888.95
1025.1751	2978.2797	4658	2923.75
1025.2869	2979.3433	4737.65	2958.4
1025.3986	2980.4063	4697.9	2968.6
1025.5104	2981.4686	4802.25	2991.75
1025.622	2982.5303	4773.95	3013.7
1025.7336	2983.5914	4847	3037.25
1025.8452	2984.6518	4866	3062.25
1025.9568	2985.7116	4887.5	3090.65
1026.0683	2986.7708	5032.4	3102.75
1026.1797	2987.8293	4895.6	3123.35
1026.2911	2988.8872	5071.85	3168.5
1026.4025	2989.9444	5077.65	3195.85
1026.5138	2991.001	4985.1	3208.9
1026.6251	2992.057	5045.25	3234.55
1026.7364	2993.1123	5027.6	3280.2
1026.8475	2994.167	5205.95	3290.45
1026.9587	2995.2211	5149.45	3322.1
1027.0698	2996.2745	5162.5	3329.7
1027.1809	2997.3272	5174.9	3358.4
1027.2919	2998.3794	5156.15	3394.65
1027.4029	2999.4309	5177.7	3432.1
1027.5138	3000.4818	5164.45	3448.15
1027.6247	3001.532	5169.1	3472.9
1027.7356	3002.5816	5239.9	3506.1
1027.8464	3003.6306	5265.95	3526.45
1027.9571	3004.6789	5407.9	3564.3
1028.0679	3005.7266	5356.05	3594
1028.1785	3006.7736	5418.35	3633.45
1028.2892	3007.8201	5427.85	3647.95
1028.3998	3008.8659	5476.65	3690.85
1028.5103	3009.911	5536.45	3706.9
1028.6208	3010.9555	5487.95	3730.5
1028.7313	3011.9994	5524.55	3773.25
1028.8417	3013.0427	5580.9	3790.3
1028.9521	3014.0853	5605.5	3830.65
1029.0624	3015.1273	5573.8	3863.3
1029.1727	3016.1686	5690.75	3913.15
1029.2829	3017.2093	5695.45	3951.7
1029.3931	3018.2494	5702.3	3973.85
1029.5033	3019.2889	5812.05	4002.9
1029.6134	3020.3277	5832.5	4047.95
1029.7235	3021.3659	5858.05	4081.6
1029.8335	3022.4034	5916.3	4110.6
1029.9435	3023.4404	6039	4131.85
1030.0534	3024.4766	6019.55	4174.8
1030.1633	3025.5123	6067.65	4201.25
1030.2732	3026.5473	6094	4234.75
1030.383	3027.5817	6058.3	4262.25
1030.4927	3028.6155	6113.2	4308.05
1030.6025	3029.6486	6137.75	4349.2
1030.7121	3030.6811	6187.65	4373.25
1030.8218	3031.713	6170.85	4420.2
1030.9314	3032.7442	6240.85	4464.65
1031.0409	3033.7748	6292	4519.95
1031.1504	3034.8048	6356.65	4569.7
1031.2599	3035.8342	6330.65	4584.35
1031.3693	3036.8629	6360.25	4616.7
1031.4787	3037.891	6467.15	4662.4
1031.588	3038.9184	6541	4687.15
1031.6973	3039.9453	6580.15	4716.2
1031.8065	3040.9715	6532	4750.35
1031.9157	3041.997	6496.9	4805
1032.0249	3043.022	6615.25	4838.75
1032.134	3044.0463	6743.8	4901.85
1032.243	3045.07	6693.05	4920.55
1032.3521	3046.093	6915.2	4963.05
1032.461	3047.1155	6892.65	5001.55
1032.57	3048.1373	6832.6	5032.2
1032.6789	3049.1584	6889.3	5070.95
1032.7877	3050.179	6899.75	5108.4
1032.8965	3051.1989	6922.1	5153.55
1033.0053	3052.2182	6922.3	5216.55
1033.114	3053.2368	6977	5250.25
1033.2226	3054.2549	6984.25	5278.35
1033.3313	3055.2723	7064.6	5340.55
1033.4398	3056.2891	7099.4	5349.1
1033.5484	3057.3052	7174.55	5403.5
1033.6569	3058.3208	7281.3	5449.8
1033.7653	3059.3357	7431.2	5485.8
1033.8737	3060.3499	7389.15	5543.75
1033.9821	3061.3636	7457	5599.65
1034.0904	3062.3766	7459.9	5634.3
1034.1987	3063.389	7506.45	5699
1034.3069	3064.4008	7632.5	5727.6
1034.4151	3065.412	7509.45	5757.7
1034.5232	3066.4225	7562.15	5794.2
1034.6313	3067.4324	7571.7	5857.05
1034.7394	3068.4417	7623.8	5904.75
1034.8474	3069.4503	7733.5	5976.4
1034.9553	3070.4584	7743.2	5995.4
1035.0633	3071.4658	7784.1	6037.2
1035.1711	3072.4725	7809.1	6056.6
1035.279	3073.4787	7897.65	6112.7
1035.3868	3074.4842	7981.25	6157.25
1035.4945	3075.4892	8020.4	6198.35
1035.6022	3076.4934	8035.95	6255.15
1035.7098	3077.4971	8190.95	6312.3
1035.8174	3078.5002	8153.05	6365.9
1035.925	3079.5026	8127.95	6429.15
1036.0325	3080.5044	8177.8	6463.5
1036.14	3081.5056	8231.95	6527.05
1036.2474	3082.5061	8345.9	6553.65
1036.3548	3083.506	8424.85	6589.1
1036.4622	3084.5054	8416.55	6657.1
1036.5695	3085.504	8516.95	6715.1
1036.6767	3086.5021	8520.6	6762.25
1036.7839	3087.4996	8521.4	6780.35
1036.8911	3088.4964	8560.4	6820.8
1036.9982	3089.4926	8687.95	6899.95
1037.1053	3090.4882	8841.95	6921.8
1037.2123	3091.4832	8739.75	6970.6
1037.3193	3092.4775	8801.25	7012.3
1037.4262	3093.4712	8853.8	7076.5
1037.5331	3094.4643	8935.85	7125.8
1037.64	3095.4568	9019.55	7188.65
1037.7468	3096.4487	9074.15	7244.85
1037.8535	3097.4399	9223.15	7294
1037.9602	3098.4306	9175.7	7351.4
1038.0669	3099.4206	9263	7374
1038.1735	3100.41	9213.1	7462.15
1038.2801	3101.3988	9374.5	7513.65
1038.3867	3102.3869	9305.45	7551.65
1038.4931	3103.3744	9336.75	7589.7
1038.5996	3104.3614	9858.65	7648.55
1038.706	3105.3477	9674.95	7708.45
1038.8124	3106.3333	9613.3	7782.65
1038.9187	3107.3184	9622.5	7825.65
1039.0249	3108.3029	9644.35	7872.75
1039.1312	3109.2867	9774.6	7945.2
1039.2373	3110.2699	9763.65	8011.1
1039.3435	3111.2525	9865.75	8070.25
1039.4496	3112.2345	10063.05	8119.3
1039.5556	3113.2159	10004.9	8187.55
1039.6616	3114.1966	10123	8244.75
1039.7675	3115.1767	10101.25	8294.9
1039.8735	3116.1563	10152.35	8346.7
1039.9793	3117.1352	10252.4	8414.9
1040.0851	3118.1134	10343.15	8451.6
1040.1909	3119.0911	10356.3	8501.05
1040.2966	3120.0682	10401.05	8541.15
1040.4023	3121.0446	10421.45	8578.85
1040.508	3122.0204	10504.95	8644.8
1040.6136	3122.9957	10651.3	8727.45
1040.7191	3123.9703	10589.3	8750.5
1040.8246	3124.9442	10547.35	8828.2
1040.9301	3125.9176	10872.45	8883.5
1041.0355	3126.8904	10782.65	8959.95
1041.1408	3127.8625	10810.5	8998.25
1041.2462	3128.834	10785.65	9065.2
1041.3514	3129.8049	10849.45	9091.15
1041.4567	3130.7752	11001.95	9149.55
1041.5619	3131.7449	11012.55	9181.45
1041.667	3132.714	11022.35	9253.6
1041.7721	3133.6825	11012.15	9292.45
1041.8771	3134.6503	11038.15	9328.8
1041.9821	3135.6176	11110.1	9395.3
1042.0871	3136.5842	11168.65	9439.05
1042.192	3137.5502	11283.55	9483.55
1042.2969	3138.5156	11524.6	9545.25
1042.4017	3139.4804	11497.2	9593.75
1042.5065	3140.4446	11589.2	9644.5
1042.6112	3141.4082	11451.65	9664.65
1042.7159	3142.3711	11475.25	9675.65
1042.8206	3143.3335	11469.05	9741.45
1042.9252	3144.2952	11501.65	9792.45
1043.0297	3145.2563	11536.1	9840.65
1043.1342	3146.2168	11620.05	9904.35
1043.2387	3147.1767	11608.45	9927.3
1043.3431	3148.136	11741.55	9969.25
1043.4475	3149.0947	11725.45	10018.65
1043.5518	3150.0528	11781.2	10059.4
1043.6561	3151.0103	11878.3	10144.85
1043.7603	3151.9671	11940	10172.15
1043.8645	3152.9234	12034.55	10221.35
1043.9686	3153.879	12064.6	10253.1
1044.0727	3154.8341	12080.25	10314.95
1044.1768	3155.7885	12393.6	10356.45
1044.2808	3156.7423	12473.85	10390.1
1044.3847	3157.6955	12308.45	10390.2
1044.4886	3158.6481	12217.5	10423.45
1044.5925	3159.6001	12648.85	10436.5
1044.6963	3160.5515	12371.95	10504
1044.8001	3161.5023	12362.3	10567.35
1044.9038	3162.4524	12381.1	10600.4
1045.0075	3163.402	12392.95	10641.9
1045.1112	3164.3509	12402.25	10683.4
1045.2148	3165.2993	12750.8	10672.05
1045.3183	3166.247	12599.75	10721.3
1045.4218	3167.1942	12545.35	10739.5
1045.5253	3168.1407	12537.9	10776.9
1045.6287	3169.0866	12840.9	10821.8
1045.7321	3170.0319	12692.45	10853.85
1045.8354	3170.9767	12670.7	10873.7
1045.9386	3171.9208	12653.1	10888.2
1046.0419	3172.8643	12680.9	10925.75
1046.1451	3173.8072	12686.8	10921.3
1046.2482	3174.7495	12742.95	10975
1046.3513	3175.6911	12795.35	10975.75
1046.4543	3176.6322	12803.65	10996.9
1046.5573	3177.5727	12945.45	11035.4
1046.6603	3178.5126	12910.95	11039
1046.7632	3179.4519	12896.45	11086
1046.8661	3180.3905	12893.7	11095
1046.9689	3181.3286	12874	11131.5
1047.0716	3182.266	12885.2	11162.7
1047.1744	3183.2029	12883.05	11181.75
1047.277	3184.1392	12913.7	11217.65
1047.3797	3185.0748	12969.2	11243.4
1047.4823	3186.0099	13265.45	11273.8
1047.5848	3186.9443	13062.1	11266.6
1047.6873	3187.8781	13025.5	11274.9
1047.7897	3188.8114	12991.65	11271.65
1047.8921	3189.744	13047.7	11300.15
1047.9945	3190.6761	13027.55	11297.7
1048.0968	3191.6075	13063.15	11323.35
1048.1991	3192.5383	13068.8	11356.45
1048.3013	3193.4686	13082.95	11365.55
1048.4034	3194.3982	13129.55	11404.1
1048.5056	3195.3272	13264.95	11423.2
1048.6076	3196.2557	13241.2	11410.95
1048.7097	3197.1835	13173.55	11420.45
1048.8117	3198.1107	13160.35	11405.7
1048.9136	3199.0373	13170.65	11393.6
1049.0155	3199.9634	13111.15	11385.65
1049.1173	3200.8888	13324.3	11425.45
1049.2191	3201.8136	13260.15	11447.05
1049.3209	3202.7379	13203.1	11435.2
1049.4226	3203.6615	13229.8	11444.15
1049.5243	3204.5845	13135.4	11441.25
1049.6259	3205.507	13197.5	11452.95
1049.7275	3206.4288	13368.9	11426.1
1049.829	3207.35	13212.95	11402.7
1049.9305	3208.2707	13115.25	11395.25
1050.0319	3209.1907	13185.95	11390.8
1050.1333	3210.1102	13120.4	11349.35
1050.2346	3211.029	13119.35	11353.5
1050.3359	3211.9472	13033.95	11332.7
1050.4372	3212.8649	12981	11290.9
1050.5383	3213.7819	12976.9	11283.7
1050.6395	3214.6984	12986.95	11263.15
1050.7406	3215.6143	12980.05	11261.4
1050.8417	3216.5295	12997.3	11272.35
1050.9427	3217.4442	12992.45	11262.5
1051.0436	3218.3582	12964.15	11227.9
1051.1446	3219.2717	12953.15	11207.75
1051.2454	3220.1846	12997.45	11161.1
1051.3463	3221.0969	12977.35	11150.25
1051.447	3222.0086	12866.85	11113
1051.5478	3222.9196	12896.45	11085.55
1051.6485	3223.8301	12934.35	11083.2
1051.7491	3224.74	12816.4	11028.35
1051.8497	3225.6493	12779.2	10994.55
1051.9503	3226.558	12750.35	10998.6
1052.0508	3227.4662	12747.45	10966.8
1052.1512	3228.3737	12753.35	10941.35
1052.2516	3229.2806	12990.85	10918.25
1052.352	3230.1869	12671.45	10852.6
1052.4523	3231.0927	12639.15	10815.1
1052.5526	3231.9978	12533.65	10734.2
1052.6528	3232.9024	12540.25	10699.35
1052.753	3233.8063	12408.25	10671.7
1052.8531	3234.7097	12386.1	10621.85
1052.9532	3235.6124	12304.6	10575.5
1053.0532	3236.5146	12246.9	10522.85
1053.1532	3237.4162	12270.1	10488.8
1053.2531	3238.3172	12298.25	10488.65
1053.353	3239.2176	12212.3	10386.7
1053.4529	3240.1174	12311.95	10317.3
1053.5527	3241.0166	12147.5	10283.45
1053.6524	3241.9152	12200.85	10215
1053.7521	3242.8133	11953.85	10130.25
1053.8518	3243.7107	12206.65	10061
1053.9514	3244.6076	11837.75	9963.05
1054.051	3245.5038	11661.8	9875.2
1054.1505	3246.3995	11600.95	9771
1054.25	3247.2946	11413.05	9660.3
1054.3494	3248.1891	11351.45	9567.3
1054.4488	3249.083	11222.3	9447.15
1054.5481	3249.9763	11146.3	9273.05
1054.6474	3250.869	10909.5	9112.85
1054.7466	3251.7611	10680.5	8932.55
1054.8458	3252.6526	10492.45	8721.95
1054.945	3253.5436	10266.75	8495.25
1055.0441	3254.434	9937.25	8223.05
1055.1431	3255.3237	9652.45	7973.25
1055.2421	3256.2129	9390.95	7649
