Software Version:	2.0.6470.17062
Unit SN:	AIO-M72-0210
Spectrometer SN:	5335
Date:	10/23/2018 10:38:33 AM
Data Line Index:	25
Spectral Points:	1941
Integration time (ms):	1000
Averages:	20
Delay (ms):	0
Sequence Number:	1
Processing:	dark subtract
Laser Power (mW):	305
Laser Current (mA):	741
Laser Diode Temp (C):	25
Laser Case Temp (C):	30.5
System Temp (C):	31.6
Spectrometer Temp (C):	28.6
CCD Temp (C):	0
Secondary Temp (C):	20.006
Heatsink Temp (C):	28.857
CCDPCB Temp (C):	47.023
SecondaryPCB Temp (C):	37.997

Wavelength	RamanShift	Raw Counts	Dark Subtracted
801.1299	250.3411	4319.75	3286.5
801.2731	252.571	4249.5	3222
801.4162	254.8003	4200.35	3167.65
801.5594	257.0291	4204.25	3088.6
801.7026	259.2572	4087.35	3026.35
801.8458	261.4848	4017.8	2969.55
801.989	263.7118	3934	2898.95
802.1322	265.9382	3886.7	2841.5
802.2755	268.1641	3829.35	2785.05
802.4187	270.3894	3786.85	2742.85
802.562	272.6141	3735.4	2688.65
802.7053	274.8382	3669	2622.95
802.8486	277.0617	3626.35	2581.5
802.9919	279.2847	3569.45	2530.95
803.1352	281.5071	3540.05	2486.8
803.2785	283.7289	3499.05	2442.55
803.4219	285.9501	3439.55	2392.3
803.5652	288.1707	3404.25	2350.05
803.7086	290.3908	3385.6	2330.95
803.852	292.6103	3350.9	2296.15
803.9954	294.8292	3328.8	2273.25
804.1388	297.0475	3316	2240.3
804.2823	299.2652	3289.2	2220.4
804.4257	301.4823	3264.85	2198.05
804.5692	303.6989	3244.85	2177.25
804.7126	305.9148	3227.7	2159.35
804.8561	308.1302	3193.3	2125.75
804.9996	310.345	3186.05	2117.65
805.1431	312.5592	3152.45	2088.75
805.2867	314.7728	3146.3	2079.65
805.4302	316.9859	3139.35	2058.35
805.5738	319.1983	3120.1	2045.55
805.7173	321.4101	3120.2	2043.35
805.8609	323.6214	3136.45	2040.9
806.0045	325.832	3103.7	2018.6
806.1481	328.0421	3102.7	2023.75
806.2917	330.2516	3087.45	2000.85
806.4353	332.4605	3085.95	2006
806.579	334.6688	3093.5	2001.8
806.7226	336.8764	3080.15	1998.5
806.8663	339.0835	3077.65	2000.7
807.01	341.2901	3097.1	2007
807.1536	343.496	3100.25	2003
807.2973	345.7013	3096.3	2008.95
807.4411	347.906	3097.2	2008
807.5848	350.1101	3144.15	2057.8
807.7285	352.3136	3231.75	2136.85
807.8723	354.5165	3282.25	2190.65
808.016	356.7188	3281.6	2185.65
808.1598	358.9206	3205.55	2107.45
808.3036	361.1217	3150.5	2051.85
808.4474	363.3222	3120.05	2017.8
808.5912	365.5221	3114.45	2011.55
808.735	367.7214	3108.5	2008.65
808.8788	369.9201	3117.9	1995
809.0227	372.1182	3097.65	1987.25
809.1665	374.3157	3123.2	2016.95
809.3104	376.5126	3174.65	2065.05
809.4543	378.7089	3188.75	2083.65
809.5982	380.9046	3186.45	2065.55
809.7421	383.0997	3132.45	2028.75
809.886	385.2941	3110.45	2002.35
810.0299	387.488	3077.2	1973.15
810.1739	389.6813	3072.2	1975.1
810.3178	391.8739	3068.25	1964.5
810.4618	394.0659	3063.5	1956.55
810.6057	396.2574	3075.9	1966.4
810.7497	398.4482	3058.1	1945.8
810.8937	400.6384	3067.2	1947.5
811.0377	402.828	3089.65	1979.7
811.1817	405.017	3100.85	1973.95
811.3257	407.2054	3115.95	1997.7
811.4698	409.3931	3133.4	2026.15
811.6138	411.5803	3234.75	2113.85
811.7579	413.7668	3497.8	2374.8
811.9019	415.9527	3829.65	2702.55
812.046	418.138	3898.05	2772.35
812.1901	420.3227	3647.9	2523.35
812.3342	422.5068	3395.9	2236.35
812.4783	424.6903	3233.55	2105.1
812.6224	426.8731	3178.05	2057.7
812.7666	429.0553	3162.35	2044.25
812.9107	431.2369	3210.85	2046.9
813.0549	433.4179	3154.8	2011.05
813.199	435.5983	3097.35	1980.3
813.3432	437.7781	3078.45	1964.45
813.4874	439.9572	3063.05	1944.4
813.6316	442.1357	3059.2	1944.45
813.7758	444.3136	3062.4	1939.9
813.92	446.4909	3092.55	1971.5
814.0642	448.6675	3153.3	1987.9
814.2084	450.8435	3126.45	1991.35
814.3527	453.0189	3073.1	1948.1
814.4969	455.1937	3054.1	1927.25
814.6412	457.3679	3040.5	1921.7
814.7854	459.5414	3032.1	1912.75
814.9297	461.7143	3045.65	1914.7
815.074	463.8866	3039.8	1916.05
815.2183	466.0582	3032.25	1903.1
815.3626	468.2293	3028.05	1895
815.5069	470.3997	3008.55	1881.45
815.6513	472.5694	3025.4	1885.5
815.7956	474.7386	3005.1	1867.6
815.9399	476.9071	2999.45	1865.4
816.0843	479.075	3035.2	1866.15
816.2287	481.2423	3001.65	1852.15
816.373	483.4089	2980.25	1848.75
816.5174	485.5749	2990.3	1847.25
816.6618	487.7403	3020.7	1855.25
816.8062	489.905	2981.6	1839.65
816.9506	492.0691	2968.15	1829.05
817.095	494.2326	2966.55	1834.4
817.2395	496.3954	2956.4	1825
817.3839	498.5576	2924.75	1788
817.5283	500.7192	2933.8	1795.55
817.6728	502.8801	2923.15	1782.75
817.8173	505.0405	2921.05	1771.2
817.9617	507.2001	2913.9	1772.9
818.1062	509.3592	2907.6	1769.05
818.2507	511.5176	2900.65	1750
818.3952	513.6753	2916.7	1738.6
818.5397	515.8325	2896.25	1751.45
818.6842	517.9889	2882.9	1741.55
818.8287	520.1448	2869.7	1731.55
818.9733	522.3	2882.45	1719.4
819.1178	524.4546	2879.2	1725.15
819.2623	526.6085	2853.85	1705.8
819.4069	528.7618	2857.3	1704.8
819.5514	530.9145	2861.55	1709.7
819.696	533.0665	2834.6	1690.85
819.8406	535.2179	2862.4	1699.05
819.9852	537.3686	2838.15	1685.55
820.1298	539.5187	2852.75	1685.05
820.2744	541.6682	2831.6	1681.15
820.419	543.817	2822.05	1667.4
820.5636	545.9651	2841.15	1675.05
820.7082	548.1126	2814.25	1661.05
820.8528	550.2595	2816.1	1652.5
820.9975	552.4058	2810.65	1641.3
821.1421	554.5513	2809.35	1652.55
821.2868	556.6963	2814.45	1651
821.4314	558.8406	2818.65	1650.5
821.5761	560.9842	2813.6	1651.65
821.7208	563.1272	2804.25	1651.55
821.8655	565.2696	2809.95	1651.9
822.0102	567.4113	2805.55	1653.15
822.1549	569.5524	2808.5	1661.35
822.2996	571.6928	2838.5	1686.25
822.4443	573.8325	2897.4	1743.2
822.589	575.9717	2977.3	1795.55
822.7337	578.1101	2986.85	1816.35
822.8785	580.2479	2968.45	1804.55
823.0232	582.3851	3018.55	1855.7
823.1679	584.5216	3165	1996.3
823.3127	586.6575	3335.15	2163.15
823.4574	588.7927	3319.25	2137.2
823.6022	590.9272	3123	1961.55
823.747	593.0611	2968.25	1799.05
823.8918	595.1944	2872.6	1707.6
824.0366	597.327	2838.45	1670.85
824.1813	599.4589	2801.8	1641.1
824.3261	601.5902	2793.95	1629.05
824.4709	603.7208	2772.3	1603.05
824.6158	605.8508	2772.1	1607.35
824.7606	607.9802	2773.35	1604.5
824.9054	610.1088	2760.6	1599.7
825.0502	612.2368	2758.25	1589.75
825.1951	614.3642	2752.65	1590.05
825.3399	616.4909	2747.6	1581.05
825.4848	618.6169	2741.45	1558.4
825.6296	620.7423	2716.45	1540.95
825.7745	622.867	2704.1	1540.2
825.9193	624.9911	2691.9	1528.95
826.0642	627.1145	2692.5	1522.15
826.2091	629.2372	2692.45	1518.9
826.354	631.3593	2741.1	1514.2
826.4989	633.4807	2709.3	1519.8
826.6438	635.6015	2743.4	1504.95
826.7887	637.7216	2691	1511.5
826.9336	639.841	2676.9	1514.2
827.0785	641.9598	2667.8	1502.05
827.2234	644.0779	2663.1	1496.8
827.3683	646.1954	2665.75	1495.75
827.5132	648.3122	2665.7	1493.3
827.6582	650.4283	2650.45	1480.9
827.8031	652.5438	2658.15	1475.7
827.9481	654.6585	2648.6	1471.35
828.093	656.7727	2648.85	1471.4
828.238	658.8861	2644.35	1456.6
828.3829	660.9989	2648.25	1462.7
828.5279	663.1111	2646.45	1463.05
828.6728	665.2225	2638.45	1452.85
828.8178	667.3333	2632.7	1455.55
828.9628	669.4435	2632.5	1445.55
829.1078	671.5529	2641.8	1444.4
829.2528	673.6617	2620.05	1442.9
829.3978	675.7699	2618.3	1437.3
829.5428	677.8773	2642.35	1457.65
829.6878	679.9841	2637.75	1455.05
829.8328	682.0902	2633.7	1458.35
829.9778	684.1957	2643.35	1464.9
830.1228	686.3005	2654.75	1475.65
830.2678	688.4046	2660.95	1473.85
830.4128	690.508	2665.75	1485.15
830.5579	692.6108	2688.8	1494.8
830.7029	694.7129	2683.5	1497.1
830.8479	696.8143	2688.3	1494.55
830.993	698.9151	2680.6	1498.35
831.138	701.0152	2679.15	1495.15
831.2831	703.1146	2689.9	1507.7
831.4281	705.2133	2674.9	1498.25
831.5732	707.3114	2690.55	1502.1
831.7183	709.4087	2691.35	1515.7
831.8633	711.5054	2689.9	1500.55
832.0084	713.6015	2676.55	1491.15
832.1535	715.6968	2661.5	1481
832.2985	717.7915	2641.35	1465.85
832.4436	719.8855	2632.5	1455.45
832.5887	721.9789	2620.15	1440.55
832.7338	724.0715	2612.7	1426.35
832.8789	726.1635	2590.25	1409.4
833.024	728.2548	2582.85	1398.05
833.1691	730.3454	2590.1	1398.9
833.3142	732.4354	2600.1	1391.6
833.4593	734.5246	2587.8	1396.9
833.6044	736.6132	2593.35	1406.45
833.7495	738.7011	2594.65	1412.3
833.8946	740.7884	2614.3	1433.55
834.0398	742.8749	2642.5	1469
834.1849	744.9608	2689.75	1509.85
834.33	747.046	2739.35	1561.45
834.4751	749.1305	2784.9	1596.85
834.6203	751.2143	2789.55	1596
834.7654	753.2974	2735.4	1554.1
834.9105	755.3799	2674.75	1487.15
835.0557	757.4617	2607.7	1426.8
835.2008	759.5428	2576.3	1389.1
835.346	761.6232	2538.6	1353.15
835.4911	763.7029	2518.95	1328.7
835.6363	765.782	2502.05	1313.65
835.7814	767.8603	2468.95	1284.05
835.9266	769.938	2467.65	1280.85
836.0717	772.015	2463.8	1269.15
836.2169	774.0913	2454	1263.3
836.3621	776.1669	2441	1253.6
836.5072	778.2419	2436.4	1243
836.6524	780.3161	2423.85	1237.25
836.7976	782.3897	2432.95	1249.4
836.9428	784.4625	2493.05	1243.6
837.0879	786.5347	2440.25	1236.9
837.2331	788.6062	2449.65	1237.45
837.3783	790.6771	2420.75	1226.3
837.5235	792.7472	2419.75	1218.9
837.6687	794.8166	2427.8	1216
837.8138	796.8854	2398.9	1207.05
837.959	798.9534	2390.8	1198.35
838.1042	801.0208	2393.1	1198.85
838.2494	803.0875	2390.15	1201.3
838.3946	805.1535	2385.1	1198.15
838.5398	807.2188	2381.1	1191.35
838.685	809.2834	2389.55	1200.15
838.8302	811.3473	2414.4	1221.5
838.9754	813.4106	2437.35	1257.95
839.1206	815.4731	2435.65	1252.75
839.2658	817.5349	2406.3	1215.2
839.411	819.5961	2374.45	1178.75
839.5562	821.6566	2346.35	1153.5
839.7014	823.7163	2331.55	1140.35
839.8467	825.7754	2344.95	1136.95
839.9919	827.8338	2324.35	1122.6
840.1371	829.8915	2316.05	1123.95
840.2823	831.9485	2306.85	1118.1
840.4275	834.0048	2317	1118.05
840.5727	836.0604	2303.2	1101.85
840.7179	838.1153	2284.2	1089.3
840.8632	840.1695	2285.05	1097.85
841.0084	842.2231	2307.1	1102.15
841.1536	844.2759	2283.55	1085.3
841.2988	846.328	2279.15	1074.85
841.444	848.3795	2277.05	1083.5
841.5893	850.4302	2257.65	1065.55
841.7345	852.4802	2256.95	1061.35
841.8797	854.5296	2268.6	1070.65
842.0249	856.5782	2253.3	1050.05
842.1702	858.6262	2244.95	1048.75
842.3154	860.6734	2241.1	1044.5
842.4606	862.72	2233.9	1039.45
842.6058	864.7658	2227.6	1033.05
842.7511	866.811	2231.5	1031.8
842.8963	868.8555	2215.6	1014.2
843.0415	870.8992	2204.7	1013
843.1868	872.9423	2206.95	1007.9
843.332	874.9846	2197.85	993.25
843.4772	877.0263	2194	995.6
843.6225	879.0672	2174.3	980.3
843.7677	881.1075	2185.15	980.65
843.9129	883.1471	2181.95	982.5
844.0581	885.1859	2176	973.6
844.2034	887.2241	2170	978
844.3486	889.2615	2151.75	961.6
844.4938	891.2983	2156.35	964.85
844.6391	893.3343	2135	948.85
844.7843	895.3696	2144.65	954.4
844.9295	897.4043	2154.8	949.25
845.0747	899.4382	2144.45	944.6
845.22	901.4715	2135.25	930.2
845.3652	903.504	2135.45	927.2
845.5104	905.5358	2129.35	929.95
845.6557	907.5669	2123	924.4
845.8009	909.5973	2121.45	922.5
845.9461	911.6271	2156.25	919.15
846.0913	913.6561	2136.5	911.6
846.2366	915.6844	2112.6	911.2
846.3818	917.7119	2104.7	905.05
846.527	919.7388	2111.3	907.95
846.6722	921.765	2095.15	894.8
846.8175	923.7905	2156.1	888.9
846.9627	925.8153	2120.15	893.35
847.1079	927.8393	2085.6	887.6
847.2531	929.8627	2090.9	887.65
847.3983	931.8853	2096.65	896.35
847.5436	933.9073	2086.2	893.8
847.6888	935.9285	2078.4	883.45
847.834	937.949	2074.7	884.05
847.9792	939.9688	2077.35	875.85
848.1244	941.9879	2082.9	873.2
848.2696	944.0063	2068.3	863.4
848.4148	946.024	2079	865.25
848.56	948.041	2060.35	857.55
848.7052	950.0573	2063.6	861.55
848.8504	952.0728	2080.65	861.9
848.9957	954.0877	2056.05	848.6
849.1409	956.1018	2049.45	848.85
849.2861	958.1152	2051.95	847.75
849.4313	960.1279	2041.65	846.05
849.5765	962.1399	2041.2	837.75
849.7216	964.1512	2041.95	841.95
849.8668	966.1618	2039.6	833.8
850.012	968.1717	2059.4	838.45
850.1572	970.1808	2041.05	837.85
850.3024	972.1893	2032.75	827.5
850.4476	974.197	2039.15	835.95
850.5928	976.204	2021.95	825.75
850.738	978.2103	2021.25	821.75
850.8831	980.2159	2030.3	828.65
851.0283	982.2208	2029.55	815.75
851.1735	984.2249	2049.45	823.5
851.3187	986.2284	2034.4	831
851.4638	988.2311	2071.55	826.15
851.609	990.2331	2042.7	822.6
851.7542	992.2344	2044.15	826.95
851.8993	994.235	2042.95	816.95
852.0445	996.2349	2036.5	821.9
852.1897	998.2341	2024.7	817.7
852.3348	1000.2325	2038.5	821.6
852.48	1002.2302	2023.55	818.05
852.6251	1004.2272	2020.95	825.55
852.7703	1006.2235	2022.9	817.05
852.9154	1008.2191	2026.75	828.9
853.0606	1010.214	2025.3	819.8
853.2057	1012.2081	2025.95	821.8
853.3508	1014.2015	2017.8	818.8
853.496	1016.1942	2025.55	821.95
853.6411	1018.1862	2025.75	820.4
853.7862	1020.1775	2037.65	814.3
853.9314	1022.168	2041.9	823.55
854.0765	1024.1579	2026.8	819.75
854.2216	1026.147	2037.95	832.25
854.3667	1028.1354	2040.45	832.1
854.5118	1030.1231	2038	834.15
854.657	1032.11	2074.75	869.2
854.8021	1034.0963	2091.35	887.25
854.9472	1036.0818	2084.45	884.65
855.0923	1038.0666	2059	854.3
855.2374	1040.0507	2045.3	838.4
855.3825	1042.034	2052.65	837.05
855.5275	1044.0166	2036.8	830.95
855.6726	1045.9986	2032.4	829.1
855.8177	1047.9798	2033.55	827.15
855.9628	1049.9602	2030.35	833.3
856.1079	1051.94	2032.5	826.35
856.2529	1053.919	2020.65	817.9
856.398	1055.8973	2034.5	831.85
856.5431	1057.8749	2027.65	813.6
856.6881	1059.8518	2033.1	821.8
856.8332	1061.8279	2027.2	813.25
856.9782	1063.8033	2023.95	809.3
857.1233	1065.778	2011.55	805.9
857.2683	1067.752	2012.35	808.1
857.4134	1069.7253	2045.05	802.5
857.5584	1071.6978	2025.65	803.3
857.7034	1073.6696	2009.35	804.75
857.8485	1075.6407	2003.75	799.65
857.9935	1077.611	1999.3	786.5
858.1385	1079.5806	1998.45	793
858.2835	1081.5496	1984.35	781.8
858.4285	1083.5177	1975.7	768.05
858.5736	1085.4852	1983.65	769.95
858.7186	1087.4519	1980.65	772.75
858.8635	1089.4179	1989.35	772.55
859.0085	1091.3832	1980.75	767.35
859.1535	1093.3478	1990.15	769.9
859.2985	1095.3116	1977	770.55
859.4435	1097.2747	1978.4	768.05
859.5885	1099.2371	1967.15	767.65
859.7334	1101.1987	1961.15	755.8
859.8784	1103.1596	1978.15	769.1
860.0234	1105.1198	1968.05	759.9
860.1683	1107.0793	1970.25	755.2
860.3133	1109.0381	1967.35	758.75
860.4582	1110.9961	1984.45	747.5
860.6031	1112.9534	1959.3	741.25
860.7481	1114.9099	1966.85	753.4
860.893	1116.8658	1967.4	755
861.0379	1118.8209	2020.2	750.45
861.1829	1120.7752	1980.85	754.85
861.3278	1122.7289	1963.5	759
861.4727	1124.6818	1962.7	760.65
861.6176	1126.634	1961.55	753.55
861.7625	1128.5855	1955.05	753.3
861.9074	1130.5362	1956.45	752.05
862.0523	1132.4862	1962.9	756.05
862.1971	1134.4355	1968.25	753.35
862.342	1136.384	1967	757.05
862.4869	1138.3318	1962.8	757.8
862.6318	1140.2789	1968.2	755.85
862.7766	1142.2253	1963.6	760.55
862.9215	1144.1709	1965.05	754.55
863.0663	1146.1158	1965.9	759.25
863.2112	1148.0599	2006.45	759.6
863.356	1150.0034	1974.7	755.9
863.5008	1151.9461	1965.45	760.75
863.6456	1153.888	1965.65	755.65
863.7905	1155.8293	1959.05	751.75
863.9353	1157.7698	1978	760.6
864.0801	1159.7096	1971.2	750.8
864.2249	1161.6486	1964.05	752.85
864.3697	1163.5869	1968.5	764.65
864.5145	1165.5245	1967	762.75
864.6592	1167.4613	1972.75	768.55
864.804	1169.3975	1962.7	765.1
864.9488	1171.3328	1978.35	782.35
865.0935	1173.2675	1980.2	777.35
865.2383	1175.2014	1990.7	784.35
865.3831	1177.1346	1994.05	778
865.5278	1179.067	1996.45	786.05
865.6725	1180.9988	2012.65	793.25
865.8173	1182.9297	2011.1	803.95
865.962	1184.86	2016.15	800.1
866.1067	1186.7895	2016.65	806
866.2514	1188.7183	2033.4	820.25
866.3961	1190.6463	2040.35	822.1
866.5408	1192.5737	2049.8	830.15
866.6855	1194.5002	2047	839.7
866.8302	1196.4261	2046.85	839.3
866.9749	1198.3512	2070.2	856.45
867.1195	1200.2756	2069.25	861.15
867.2642	1202.1992	2078.7	866.15
867.4088	1204.1221	2093.45	871.15
867.5535	1206.0443	2098.85	879.1
867.6981	1207.9657	2119.1	882.65
867.8428	1209.8864	2122.1	892.95
867.9874	1211.8064	2122.7	892
868.132	1213.7256	2116.5	892.9
868.2766	1215.6441	2111.2	897.7
868.4212	1217.5618	2112.65	895.85
868.5658	1219.4789	2117.4	902.15
868.7104	1221.3951	2104.55	891.2
868.855	1223.3107	2104.25	893.05
868.9996	1225.2255	2096.2	888.55
869.1441	1227.1396	2096.9	884.5
869.2887	1229.0529	2097.5	884.05
869.4333	1230.9655	2081.2	866.4
869.5778	1232.8773	2083.2	865.95
869.7223	1234.7885	2082.2	864.05
869.8669	1236.6989	2080.55	854.6
870.0114	1238.6085	2065.9	850
870.1559	1240.5174	2061.3	844.1
870.3004	1242.4256	2061.9	842.6
870.4449	1244.333	2058.05	843.25
870.5894	1246.2397	2045.7	835.05
870.7339	1248.1457	2028.9	822.3
870.8783	1250.0509	2034.25	820.3
871.0228	1251.9554	2028.8	814.45
871.1673	1253.8591	2032.1	819.65
871.3117	1255.7621	2016.2	802.45
871.4562	1257.6644	2036.5	817.7
871.6006	1259.5659	2032.55	822.9
871.745	1261.4667	2031.75	827.4
871.8894	1263.3667	2046.8	840.5
872.0338	1265.266	2043.1	835.8
872.1782	1267.1646	2057.6	850.4
872.3226	1269.0624	2077.05	868.35
872.467	1270.9595	2094.9	873.55
872.6114	1272.8558	2113.45	877.7
872.7557	1274.7514	2107.8	884.75
872.9001	1276.6463	2102.7	888.1
873.0444	1278.5404	2082	867.7
873.1888	1280.4338	2075.5	859.6
873.3331	1282.3264	2056.65	848.4
873.4774	1284.2183	2056.3	843.9
873.6217	1286.1095	2040.5	827.35
873.7661	1287.9999	2026.65	808.35
873.9103	1289.8896	1998.45	789.5
874.0546	1291.7785	1980	774.55
874.1989	1293.6667	1983.55	764.7
874.3432	1295.5542	1974.15	759
874.4874	1297.4409	1970.6	751.15
874.6317	1299.3269	1965.5	749.05
874.7759	1301.2121	1958.6	735.95
874.9202	1303.0966	1961.8	743.25
875.0644	1304.9803	1959.1	746.15
875.2086	1306.8633	1955.85	742.75
875.3528	1308.7456	1952.4	739.25
875.497	1310.6271	1942	727.25
875.6412	1312.5079	1940.2	729.25
875.7853	1314.3879	1947.5	736.9
875.9295	1316.2672	1944.35	729.5
876.0737	1318.1458	1949.5	731.3
876.2178	1320.0236	1941.25	728.25
876.3619	1321.9006	1942.85	726.65
876.5061	1323.7769	1936	715.95
876.6502	1325.6525	1938.3	726.3
876.7943	1327.5273	1937.45	725.1
876.9384	1329.4014	1943	732.45
877.0825	1331.2748	1936.8	729.65
877.2266	1333.1474	1945.25	727.8
877.3706	1335.0192	1936.45	725.85
877.5147	1336.8903	1939.85	731.9
877.6587	1338.7607	1935.8	721.15
877.8028	1340.6303	1949.05	739.35
877.9468	1342.4992	1954	743.85
878.0908	1344.3674	1965.45	750.4
878.2348	1346.2348	1973.6	763.75
878.3788	1348.1014	1977.85	766.15
878.5228	1349.9673	1985.4	773.9
878.6668	1351.8325	1995.85	776.9
878.8108	1353.6969	2003.65	783.45
878.9547	1355.5606	1998.9	783.55
879.0987	1357.4235	2010.7	794.85
879.2426	1359.2857	1995.15	780.05
879.3865	1361.1471	2007.05	789.3
879.5304	1363.0078	2029.8	795.4
879.6743	1364.8677	2029.05	809.4
879.8182	1366.7269	2039.65	832.15
879.9621	1368.5854	2065.35	856.45
880.106	1370.4431	2098.35	883.65
880.2498	1372.3	2142.05	914.15
880.3937	1374.1563	2190.15	974.15
880.5375	1376.0117	2273.8	1045.35
880.6814	1377.8665	2352.75	1136.5
880.8252	1379.7204	2482.45	1216.1
880.969	1381.5737	2543.35	1288.65
881.1128	1383.4262	2539.05	1312.35
881.2566	1385.2779	2512.05	1291.05
881.4003	1387.1289	2419.3	1200.95
881.5441	1388.9791	2329.15	1117.6
881.6879	1390.8286	2275.1	1058.05
881.8316	1392.6774	2238.9	1016
881.9753	1394.5254	2196.7	982.85
882.1191	1396.3727	2220.45	982.8
882.2628	1398.2192	2193.9	976.3
882.4065	1400.0649	2187.8	971.05
882.5501	1401.91	2188.2	950.75
882.6938	1403.7542	2141.8	921.65
882.8375	1405.5978	2111.1	889.25
882.9811	1407.4405	2070.35	852.1
883.1248	1409.2826	2034	816.35
883.2684	1411.1239	2002.7	788.75
883.412	1412.9644	1992.15	763.55
883.5556	1414.8042	1967.5	747.7
883.6992	1416.6432	1965.15	738.85
883.8428	1418.4815	1940.95	708.75
883.9863	1420.3191	1941.4	714.5
884.1299	1422.1559	1921.15	701.65
884.2734	1423.9919	1904.75	691.9
884.417	1425.8272	1944	690.4
884.5605	1427.6618	1906.3	677.4
884.704	1429.4956	1898.65	675.8
884.8475	1431.3286	1882.85	658.4
884.991	1433.161	1899.75	664.45
885.1345	1434.9925	1915.95	658.1
885.2779	1436.8233	1888.45	657.65
885.4214	1438.6534	1878.45	658.4
885.5648	1440.4827	1869.85	655.35
885.7082	1442.3113	1900.15	650.7
885.8516	1444.1391	1870.9	646.6
885.995	1445.9662	1866.9	644.8
886.1384	1447.7925	1868.35	650.65
886.2818	1449.6181	1872.6	651.55
886.4252	1451.4429	1861.35	639.35
886.5685	1453.267	1853.8	637.3
886.7119	1455.0903	1845.75	632.2
886.8552	1456.9129	1855.3	631.95
886.9985	1458.7347	1861.2	632.25
887.1418	1460.5558	1849.6	634.9
887.2851	1462.3761	1843.35	627.3
887.4284	1464.1957	1849.65	634.85
887.5716	1466.0145	1845.45	624.1
887.7149	1467.8326	1848.1	635.35
887.8581	1469.6499	1845.2	632.4
888.0013	1471.4665	1838.55	626.5
888.1445	1473.2824	1848.9	626.95
888.2877	1475.0974	1843.05	625.55
888.4309	1476.9118	1849.9	632.05
888.5741	1478.7254	1848.65	634.95
888.7172	1480.5382	1850.1	638.65
888.8604	1482.3503	1839.95	631.85
889.0035	1484.1616	1839.75	628.25
889.1466	1485.9722	1852.75	637.1
889.2897	1487.782	1850.3	637.45
889.4328	1489.5911	1846.5	621.7
889.5759	1491.3995	1844.7	626.25
889.719	1493.207	1842.05	628
889.862	1495.0139	1860.65	634.25
890.0051	1496.82	1854.25	635.45
890.1481	1498.6253	1843.1	630.15
890.2911	1500.4299	1845	630.45
890.4341	1502.2337	1867.65	630.75
890.5771	1504.0368	1872.15	631.65
890.7201	1505.8391	1857.45	632.4
890.863	1507.6407	1853.45	637.9
891.006	1509.4415	1854.7	638.95
891.1489	1511.2416	1850.5	631.25
891.2918	1513.0409	1856.2	633.85
891.4347	1514.8395	1862.05	643.3
891.5776	1516.6373	1849.05	632.95
891.7205	1518.4344	1850.1	633.3
891.8633	1520.2308	1853.9	635.8
892.0062	1522.0263	1842.5	628.55
892.149	1523.8212	1854.7	646.15
892.2918	1525.6152	1851.35	634.75
892.4346	1527.4085	1843.8	635.5
892.5774	1529.2011	1861.3	646.3
892.7202	1530.9929	1850.75	638.85
892.863	1532.784	1858.3	645.8
893.0057	1534.5743	1871.05	652.2
893.1484	1536.3639	1872	641.95
893.2912	1538.1527	1873.1	644.2
893.4339	1539.9408	1866.65	641.7
893.5766	1541.7281	1870.7	656.75
893.7192	1543.5146	1857.5	646.6
893.8619	1545.3004	1871.2	656.15
894.0045	1547.0855	1867.25	650.2
894.1472	1548.8698	1874.2	656.75
894.2898	1550.6534	1885.4	670.3
894.4324	1552.4362	1900.1	677.15
894.575	1554.2182	1903	679.75
894.7176	1555.9995	1900.6	685.9
894.8601	1557.7801	1890.4	679.35
895.0027	1559.5599	1907.6	671.25
895.1452	1561.3389	1895.5	677.45
895.2877	1563.1172	1899.4	677
895.4302	1564.8948	1891	683.15
895.5727	1566.6715	1902.6	690.25
895.7152	1568.4476	1916.8	691.35
895.8576	1570.2229	1916.1	706.7
896.0001	1571.9974	1914.1	697.55
896.1425	1573.7712	1919.85	702.1
896.2849	1575.5442	1918.85	700.65
896.4273	1577.3165	1926.5	709.5
896.5697	1579.088	1941.6	723.75
896.712	1580.8588	1944.25	726.5
896.8544	1582.6288	1955.7	735.8
896.9967	1584.3981	1958.75	743.85
897.139	1586.1666	1962.6	749.45
897.2813	1587.9344	1963.35	753.2
897.4236	1589.7014	1981.25	758.15
897.5659	1591.4676	1991.1	771.85
897.7081	1593.2332	1992.3	776.55
897.8504	1594.9979	1991.9	770.55
897.9926	1596.7619	2017.65	790.35
898.1348	1598.5252	2044.65	794.5
898.277	1600.2877	2045.25	812.6
898.4192	1602.0494	2038.15	810.5
898.5614	1603.8104	2079.3	823.9
898.7035	1605.5707	2072.8	841
898.8456	1607.3302	2077.8	851.95
898.9878	1609.0889	2071.25	854.55
899.1298	1610.8469	2076.6	860.5
899.2719	1612.6041	2074.65	865
899.414	1614.3606	2089.2	877
899.5561	1616.1163	2114.75	897.45
899.6981	1617.8713	2113.7	897.05
899.8401	1619.6255	2115.3	900.9
899.9821	1621.379	2129.75	912.3
900.1241	1623.1317	2146.1	922.75
900.2661	1624.8837	2146.8	930.4
900.408	1626.6349	2143.5	922.45
900.55	1628.3854	2154.8	940.7
900.6919	1630.1351	2156.7	944.65
900.8338	1631.884	2160.95	951.05
900.9757	1633.6322	2159	942.25
901.1176	1635.3797	2165.6	953.6
901.2594	1637.1264	2169.9	949
901.4012	1638.8723	2179.5	957.75
901.5431	1640.6175	2171.45	953
901.6849	1642.362	2191.85	964.8
901.8267	1644.1057	2179.1	948.05
901.9684	1645.8486	2179.55	956.55
902.1102	1647.5908	2167.7	955.45
902.2519	1649.3322	2156.3	945.5
902.3937	1651.0729	2162	950.1
902.5354	1652.8128	2155.25	945.1
902.6771	1654.552	2145.3	930.85
902.8187	1656.2904	2149.1	934
902.9604	1658.0281	2138.75	921.25
903.102	1659.765	2141.4	919.55
903.2437	1661.5012	2129.65	910.8
903.3853	1663.2366	2127.4	912.1
903.5268	1664.9712	2127.7	906.65
903.6684	1666.7051	2126.85	901.3
903.81	1668.4383	2121.65	896.3
903.9515	1670.1707	2111.75	895.55
904.093	1671.9023	2098.3	884.8
904.2345	1673.6332	2091.1	880.3
904.376	1675.3634	2088.6	875.5
904.5175	1677.0928	2093.1	868.65
904.6589	1678.8214	2080.7	864.9
904.8004	1680.5493	2081.45	865.95
904.9418	1682.2764	2073.95	854.95
905.0832	1684.0028	2098.35	857
905.2246	1685.7284	2103.7	861.6
905.3659	1687.4533	2086.2	857.55
905.5073	1689.1774	2088.65	861.9
905.6486	1690.9008	2080.25	862.2
905.7899	1692.6234	2082.05	866.35
905.9312	1694.3453	2088.9	867.05
906.0725	1696.0664	2089.3	875.65
906.2137	1697.7867	2095.55	869.85
906.355	1699.5063	2097	882.6
906.4962	1701.2252	2101.1	883.25
906.6374	1702.9433	2106.15	892.65
906.7786	1704.6606	2114.6	883.85
906.9198	1706.3772	2108.05	893
907.0609	1708.0931	2110.1	889.9
907.202	1709.8082	2112.4	904.25
907.3432	1711.5225	2116.35	907.9
907.4843	1713.2361	2115.6	905.9
907.6253	1714.9489	2116.25	895.1
907.7664	1716.661	2108.8	890.1
907.9074	1718.3723	2111.95	891.3
908.0485	1720.0829	2107.35	885.3
908.1895	1721.7927	2088.15	868.5
908.3305	1723.5018	2078.15	860.25
908.4714	1725.2101	2085.2	842.35
908.6124	1726.9177	2059.55	838.1
908.7533	1728.6245	2051.05	821.55
908.8942	1730.3306	2021.8	806.35
909.0351	1732.0359	2002.3	790.9
909.176	1733.7404	2000.4	777.25
909.3169	1735.4442	1973.9	749.5
909.4577	1737.1473	1956.7	740.1
909.5985	1738.8496	1940.1	725.65
909.7393	1740.5511	1910.25	691.35
909.8801	1742.2519	1889.3	669
910.0209	1743.9519	1869.9	651.2
910.1616	1745.6512	1836.15	620.45
910.3023	1747.3498	1811.75	598.65
910.443	1749.0476	1802.85	586.15
910.5837	1750.7446	1777.65	567.45
910.7244	1752.4409	1771.25	552.25
910.8651	1754.1364	1746.95	531.2
911.0057	1755.8312	1739.4	521.65
911.1463	1757.5252	1725.35	505.05
911.2869	1759.2185	1709.35	495.7
911.4275	1760.911	1699.25	485.9
911.568	1762.6028	1696.7	477
911.7086	1764.2938	1689.3	464.35
911.8491	1765.984	1683.65	461.5
911.9896	1767.6736	1668.35	453.75
912.1301	1769.3623	1675	455.85
912.2705	1771.0503	1665.35	449.25
912.411	1772.7376	1657.55	445.15
912.5514	1774.4241	1657.45	437.75
912.6918	1776.1098	1644.15	436
912.8322	1777.7948	1645.9	429.7
912.9725	1779.4791	1643.25	421.25
913.1129	1781.1626	1645.8	426.35
913.2532	1782.8453	1631	419.8
913.3935	1784.5273	1639.1	418.3
913.5338	1786.2086	1633.05	411.45
913.6741	1787.8891	1688.35	398.15
913.8143	1789.5688	1643.5	410.3
913.9545	1791.2478	1634.15	401.9
914.0947	1792.926	1622.1	410.4
914.2349	1794.6035	1614.2	397.95
914.3751	1796.2802	1608.75	396.75
914.5153	1797.9562	1622.6	401.8
914.6554	1799.6314	1611.05	400.75
914.7955	1801.3059	1610.1	396.05
914.9356	1802.9796	1610	391.55
915.0756	1804.6526	1602.6	390.9
915.2157	1806.3248	1600.3	383.5
915.3557	1807.9963	1604.4	390.2
915.4957	1809.667	1609.2	389.75
915.6357	1811.337	1605.8	383.4
915.7757	1813.0062	1598.25	386.15
915.9156	1814.6747	1597.25	380.4
916.0555	1816.3424	1593.5	380.55
916.1955	1818.0094	1591.7	380.6
916.3353	1819.6756	1593.95	379.2
916.4752	1821.3411	1588.75	377.9
916.6151	1823.0058	1603.8	381.8
916.7549	1824.6697	1606.5	377.8
916.8947	1826.3329	1597.3	380.4
917.0345	1827.9954	1601.4	373.3
917.1742	1829.6571	1586.15	370.8
917.314	1831.3181	1586.7	374.75
917.4537	1832.9783	1590.75	365.7
917.5934	1834.6377	1590.8	370.6
917.7331	1836.2964	1585.65	370.45
917.8727	1837.9544	1579	363.65
918.0124	1839.6116	1579.4	365
918.152	1841.2681	1582	372.2
918.2916	1842.9238	1581.3	365.65
918.4312	1844.5787	1579	366.35
918.5707	1846.2329	1573.25	359.5
918.7103	1847.8864	1607.55	360.9
918.8498	1849.5391	1590.5	368.75
918.9893	1851.191	1571.95	361.5
919.1287	1852.8422	1576.1	361.35
919.2682	1854.4927	1574.95	361.5
919.4076	1856.1424	1579.55	370.2
919.547	1857.7913	1570.1	358.9
919.6864	1859.4395	1570.65	356.45
919.8258	1861.087	1569.9	356.55
919.9651	1862.7337	1585.05	363.95
920.1044	1864.3796	1580.5	359.1
920.2437	1866.0248	1576.85	358
920.383	1867.6693	1579.3	356.05
920.5223	1869.313	1582.35	362.75
920.6615	1870.9559	1585.7	354.4
920.8007	1872.5981	1576.45	356.9
920.9399	1874.2396	1569	360.4
921.0791	1875.8803	1568.5	354.25
921.2183	1877.5202	1568.15	356.7
921.3574	1879.1594	1577.8	359.5
921.4965	1880.7979	1572.85	355.05
921.6356	1882.4356	1617	355.55
921.7747	1884.0726	1593.6	358.25
921.9137	1885.7088	1571.6	352.25
922.0527	1887.3442	1569.95	353.95
922.1917	1888.9789	1567.95	350
922.3307	1890.6129	1562.15	347.9
922.4697	1892.2461	1569.5	350.8
922.6086	1893.8786	1568.85	348.35
922.7475	1895.5103	1607.85	347.25
922.8864	1897.1412	1587.5	354.05
923.0253	1898.7714	1569.8	347.95
923.1641	1900.4009	1565.15	348.05
923.3029	1902.0296	1566.3	345.35
923.4417	1903.6576	1561.9	347.8
923.5805	1905.2848	1562.45	356.1
923.7193	1906.9113	1561.75	347.95
923.858	1908.537	1564.05	350
923.9967	1910.162	1569.45	350.5
924.1354	1911.7862	1570.7	349.6
924.2741	1913.4097	1566.6	344
924.4127	1915.0324	1560.8	349.25
924.5514	1916.6544	1565.5	344.9
924.69	1918.2756	1576.05	348.5
924.8286	1919.8961	1573.3	351.05
924.9671	1921.5158	1573.85	350.25
925.1057	1923.1348	1565.5	347.9
925.2442	1924.7531	1564.75	343.85
925.3827	1926.3705	1566.9	346.7
925.5211	1927.9873	1561.3	337.2
925.6596	1929.6033	1559.15	345.8
925.798	1931.2185	1561.9	347.75
925.9364	1932.833	1573.45	352.3
926.0748	1934.4468	1561.1	348.75
926.2131	1936.0598	1564.15	355.45
926.3515	1937.672	1565.7	349.6
926.4898	1939.2836	1560.55	342.4
926.628	1940.8943	1560.25	344.3
926.7663	1942.5043	1562.9	347.45
926.9045	1944.1136	1572.7	345.95
927.0428	1945.7221	1568	345.6
927.181	1947.3299	1563.75	342.85
927.3191	1948.9369	1562.15	353.55
927.4573	1950.5432	1565.25	345.6
927.5954	1952.1487	1553.75	345.9
927.7335	1953.7535	1556.8	347.4
927.8716	1955.3575	1559.3	345
928.0096	1956.9608	1558.75	335.2
928.1477	1958.5634	1569.7	353.6
928.2857	1960.1652	1571.45	347.25
928.4237	1961.7662	1565.3	349.8
928.5616	1963.3665	1564.35	352.35
928.6996	1964.9661	1561.25	345.85
928.8375	1966.5649	1563.2	345.25
928.9754	1968.163	1568.55	346.35
929.1132	1969.7603	1563.85	351.25
929.2511	1971.3569	1562.1	344.55
929.3889	1972.9527	1567.7	350.25
929.5267	1974.5478	1565.35	349.05
929.6645	1976.1421	1567.85	351.25
929.8022	1977.7357	1572.45	353.05
929.94	1979.3285	1572.55	343.15
930.0777	1980.9206	1584	345.9
930.2153	1982.512	1586.35	344.75
930.353	1984.1026	1577.45	352.35
930.4906	1985.6925	1572.85	348.75
930.6282	1987.2816	1562.2	349.45
930.7658	1988.8699	1571.3	352.45
930.9034	1990.4576	1572	352.25
931.0409	1992.0445	1582.65	353.25
931.1784	1993.6306	1565.75	348.85
931.3159	1995.216	1564.65	346.65
931.4534	1996.8006	1572.45	353.85
931.5908	1998.3845	1570.25	356.65
931.7282	1999.9677	1588	349
931.8656	2001.5501	1582.3	357.95
932.003	2003.1318	1564.1	351.7
932.1403	2004.7127	1564.35	343.85
932.2777	2006.2928	1568	352.3
932.415	2007.8723	1588.25	343.9
932.5522	2009.451	1570.3	351.9
932.6895	2011.0289	1567.45	354.95
932.8267	2012.6061	1574.05	352.05
932.9639	2014.1826	1567.9	346.55
933.1011	2015.7583	1577.7	357.55
933.2382	2017.3332	1578.5	349.75
933.3753	2018.9075	1603.1	352.55
933.5124	2020.4809	1579.95	348.4
933.6495	2022.0537	1573.5	352.35
933.7866	2023.6257	1573.85	356.85
933.9236	2025.1969	1572	357.3
934.0606	2026.7674	1566.15	356.25
934.1976	2028.3372	1568.95	349.7
934.3345	2029.9062	1558.2	345.25
934.4714	2031.4745	1579.95	351.55
934.6084	2033.042	1565.45	349.45
934.7452	2034.6088	1572.8	351.85
934.8821	2036.1748	1610.6	354.45
935.0189	2037.7401	1587.4	358.7
935.1557	2039.3047	1578.8	351.45
935.2925	2040.8685	1568.3	354.45
935.4292	2042.4316	1563.4	352.1
935.566	2043.9939	1572.4	356.85
935.7027	2045.5555	1564.8	353.35
935.8394	2047.1163	1566.65	352.6
935.976	2048.6764	1576.4	357.6
936.1126	2050.2358	1597.2	353.7
936.2492	2051.7944	1578.35	350.6
936.3858	2053.3523	1572.75	355.15
936.5224	2054.9094	1569	349
936.6589	2056.4658	1581.9	353.45
936.7954	2058.0214	1569.3	351.75
936.9319	2059.5763	1580	355.9
937.0683	2061.1305	1570.5	357.75
937.2047	2062.6839	1571.45	356.55
937.3411	2064.2366	1571.9	357.9
937.4775	2065.7886	1561.55	352.3
937.6139	2067.3398	1564.4	352.65
937.7502	2068.8902	1568.35	356.8
937.8865	2070.4399	1562.9	351.15
938.0228	2071.9889	1569.1	354
938.159	2073.5371	1567.5	349.25
938.2952	2075.0846	1567.5	351.1
938.4314	2076.6314	1563.95	349.85
938.5676	2078.1774	1581.8	348.45
938.7037	2079.7227	1569.25	346.4
938.8399	2081.2672	1563.5	349.05
938.976	2082.811	1568.6	354.65
939.112	2084.354	1566.1	349.2
939.2481	2085.8963	1575.75	357.85
939.3841	2087.4379	1571.8	350.4
939.5201	2088.9787	1581.85	360.85
939.656	2090.5188	1577.15	353.45
939.792	2092.0582	1577.65	356.9
939.9279	2093.5968	1580.7	354.9
940.0638	2095.1346	1568.75	345.75
940.1996	2096.6718	1573.5	351.45
940.3354	2098.2082	1570.2	353.65
940.4713	2099.7438	1572.8	352.05
940.607	2101.2787	1572	356.35
940.7428	2102.8129	1575.55	354.65
940.8785	2104.3463	1564.15	346.05
941.0142	2105.879	1565.95	354.85
941.1499	2107.411	1566.65	350.9
941.2855	2108.9422	1564.7	353.9
941.4212	2110.4726	1560.2	345.6
941.5568	2112.0024	1568.6	344.3
941.6923	2113.5314	1567.45	351
941.8279	2115.0596	1559.35	346.85
941.9634	2116.5871	1568.35	354.45
942.0989	2118.1139	1557.25	341.9
942.2343	2119.64	1553.95	344.6
942.3698	2121.1653	1556.7	349.9
942.5052	2122.6898	1559.95	347.55
942.6406	2124.2137	1571.95	347.05
942.7759	2125.7368	1561.45	341.25
942.9113	2127.2591	1558.55	342.2
943.0466	2128.7807	1570.2	348.9
943.1818	2130.3016	1570.25	351
943.3171	2131.8217	1580.9	358.65
943.4523	2133.3411	1592.2	373.75
943.5875	2134.8598	1615.55	404.8
943.7227	2136.3777	1641.2	433.1
943.8578	2137.8949	1670.85	456.6
943.9929	2139.4114	1672.35	457.35
944.128	2140.9271	1661.65	445.65
944.2631	2142.4421	1649.55	429.95
944.3981	2143.9563	1619.9	395.6
944.5331	2145.4698	1624.5	365.05
944.6681	2146.9826	1589.75	354.3
944.8031	2148.4946	1567	343.4
944.938	2150.0059	1559.95	343.55
945.0729	2151.5165	1548.85	333.3
945.2078	2153.0263	1537.4	323.25
945.3426	2154.5354	1538.7	325.35
945.4774	2156.0437	1538.45	324.05
945.6122	2157.5513	1537.45	318.35
945.747	2159.0582	1537.55	321.3
945.8817	2160.5644	1528.95	311.95
946.0164	2162.0698	1530.1	314.85
946.1511	2163.5745	1529.4	312.65
946.2857	2165.0784	1529.15	301.85
946.4204	2166.5816	1525.4	307.75
946.555	2168.0841	1528.5	307.95
946.6895	2169.5858	1588.05	306.3
946.8241	2171.0868	1547.75	306.75
946.9586	2172.587	1533.05	310.5
947.0931	2174.0866	1535.45	308.05
947.2275	2175.5854	1525.15	308.6
947.362	2177.0834	1516.3	305.3
947.4964	2178.5807	1518	298.25
947.6307	2180.0773	1517.15	299.85
947.7651	2181.5732	1518.85	302.6
947.8994	2183.0683	1528.8	296.6
948.0337	2184.5627	1524.3	295.85
948.168	2186.0564	1514.85	300.15
948.3022	2187.5493	1520.45	294.5
948.4364	2189.0415	1523.7	295.15
948.5706	2190.5329	1512.75	294.1
948.7047	2192.0236	1514.15	294.6
948.8389	2193.5136	1504.8	286.05
948.973	2195.0029	1503.05	294.3
949.107	2196.4914	1506.2	284.9
949.2411	2197.9792	1500.15	286.75
949.3751	2199.4662	1504.75	289.2
949.5091	2200.9525	1509.75	287.45
949.643	2202.4381	1499.25	283.25
949.7769	2203.923	1490.9	280.8
949.9108	2205.4071	1496.3	273.05
950.0447	2206.8905	1511.65	276.1
950.1785	2208.3731	1502.3	283.7
950.3124	2209.8551	1493.15	285.25
950.4461	2211.3363	1492.15	283.55
950.5799	2212.8167	1481	270.45
950.7136	2214.2964	1489.3	272.95
950.8473	2215.7754	1491	273.5
950.981	2217.2537	1486.55	269.05
951.1146	2218.7312	1489.95	267.9
951.2482	2220.208	1492.9	270.2
951.3818	2221.6841	1488.65	268.7
951.5154	2223.1595	1481.2	269.5
951.6489	2224.6341	1479.3	265.1
951.7824	2226.1079	1476.25	263.55
951.9159	2227.5811	1471.45	261.75
952.0493	2229.0535	1474.5	261.4
952.1827	2230.5252	1482	259.4
952.3161	2231.9961	1472.85	255.35
952.4495	2233.4664	1480.95	259.95
952.5828	2234.9359	1478.45	262.45
952.7161	2236.4046	1474.2	257.6
952.8494	2237.8727	1476.15	257.9
952.9826	2239.34	1479.25	257.55
953.1158	2240.8065	1467.7	256.8
953.249	2242.2724	1472.8	263.75
953.3821	2243.7375	1465.4	249.55
953.5153	2245.2019	1458.75	249.6
953.6484	2246.6655	1466.3	252.55
953.7814	2248.1285	1460.65	250
953.9145	2249.5907	1485.1	247.35
954.0475	2251.0521	1467.4	251.8
954.1804	2252.5129	1460.4	241.5
954.3134	2253.9729	1463.4	244.35
954.4463	2255.4322	1467.15	246.45
954.5792	2256.8907	1463.15	244.05
954.712	2258.3485	1460.15	246.3
954.8449	2259.8056	1450.1	238.2
954.9777	2261.262	1484.7	239.45
955.1104	2262.7176	1466.1	245.55
955.2432	2264.1725	1468.2	236.55
955.3759	2265.6267	1456.5	239.75
955.5086	2267.0802	1455.15	239.75
955.6412	2268.5329	1458.4	235.35
955.7739	2269.9849	1453.1	238.45
955.9064	2271.4362	1480.3	235.65
956.039	2272.8867	1461.4	233.2
956.1715	2274.3366	1454.1	236
956.304	2275.7856	1445.8	231.55
956.4365	2277.234	1452.95	236.65
956.569	2278.6817	1447.25	235.55
956.7014	2280.1286	1448.85	229.9
956.8338	2281.5747	1448.25	228.9
956.9661	2283.0202	1441.25	225.95
957.0984	2284.4649	1449.8	226.2
957.2307	2285.9089	1448.95	231.95
957.363	2287.3522	1459.95	226.05
957.4952	2288.7948	1448.8	229.65
957.6274	2290.2366	1444.35	231
957.7596	2291.6777	1441.45	227.95
957.8918	2293.1181	1436.3	222.95
958.0239	2294.5577	1443.6	222.5
958.156	2295.9967	1440.6	224.65
958.288	2297.4349	1438.45	224.9
958.42	2298.8723	1436.15	223
958.552	2300.3091	1452.7	221.8
958.684	2301.7451	1432.95	217.3
958.8159	2303.1804	1433.6	213.5
958.9478	2304.615	1457.7	218.4
959.0797	2306.0488	1441.5	218.7
959.2115	2307.482	1428.2	216.15
959.3434	2308.9144	1425.8	213.75
959.4751	2310.3461	1431.1	212.7
959.6069	2311.777	1433.5	215.7
959.7386	2313.2072	1423.35	210.45
959.8703	2314.6367	1419.55	212
960.002	2316.0655	1431.15	214.3
960.1336	2317.4936	1431.85	213.7
960.2652	2318.9209	1432.95	211.65
960.3967	2320.3475	1435.65	213.8
960.5283	2321.7734	1438.4	217.95
960.6598	2323.1986	1438.1	220.75
960.7913	2324.623	1447.85	224.8
960.9227	2326.0468	1449.2	224.8
961.0541	2327.4698	1462.15	240.2
961.1855	2328.892	1463.65	241.05
961.3169	2330.3136	1465.1	243.2
961.4482	2331.7344	1446.8	233.3
961.5795	2333.1545	1444.95	224.6
961.7107	2334.5739	1434.95	218.7
961.842	2335.9926	1426.85	213.95
961.9732	2337.4105	1429	212
962.1043	2338.8278	1432.75	208.75
962.2355	2340.2443	1430.45	207.25
962.3666	2341.66	1428.25	206.2
962.4976	2343.0751	1433.3	202.55
962.6287	2344.4894	1422	205.1
962.7597	2345.903	1422.3	206.5
962.8907	2347.3159	1467.35	196.35
963.0216	2348.7281	1435.95	198
963.1525	2350.1396	1450.7	196.4
963.2834	2351.5503	1441	193.65
963.4143	2352.9603	1435.95	200.15
963.5451	2354.3696	1439.85	195.15
963.6759	2355.7782	1448.55	196.35
963.8067	2357.186	1465.6	196.55
963.9374	2358.5932	1557.8	188.05
964.0681	2359.9996	1482.15	193.35
964.1988	2361.4053	1469.05	191.75
964.3294	2362.8103	1460.15	195.95
964.46	2364.2145	1457.65	190.6
964.5906	2365.618	1503.25	188.4
964.7211	2367.0209	1460.25	203
964.8516	2368.423	1430.75	193
964.9821	2369.8243	1420.15	192.75
965.1125	2371.225	1409.7	189.75
965.2429	2372.6249	1412.85	188.9
965.3733	2374.0242	1421.65	190.1
965.5037	2375.4227	1441.75	192.05
965.634	2376.8205	1421.4	194.3
965.7643	2378.2175	1428.95	191.85
965.8945	2379.6139	1412	197.45
966.0248	2381.0095	1398.45	186.75
966.155	2382.4044	1404.7	189.25
966.2851	2383.7986	1397.35	186.45
966.4152	2385.1921	1398.9	183.05
966.5453	2386.5849	1403.9	188.5
966.6754	2387.9769	1413.75	189.2
966.8054	2389.3682	1403.75	180.25
966.9354	2390.7589	1400.5	183.05
967.0654	2392.1488	1408.3	181.5
967.1953	2393.5379	1393.85	186.55
967.3252	2394.9264	1395.9	183.1
967.4551	2396.3142	1400.4	185.65
967.585	2397.7012	1399.3	176.2
967.7148	2399.0875	1400.1	185.9
967.8445	2400.4731	1395.4	184
967.9743	2401.858	1400.25	175.65
968.104	2403.2422	1400.15	182.2
968.2337	2404.6256	1391.75	175.85
968.3633	2406.0083	1411.35	184.45
968.4929	2407.3904	1394.7	179.4
968.6225	2408.7717	1403.25	177.6
968.7521	2410.1523	1397.75	182.7
968.8816	2411.5321	1395.85	184.1
969.0111	2412.9113	1418.5	177.3
969.1405	2414.2898	1399.3	181.1
969.2699	2415.6675	1434.1	180.45
969.3993	2417.0445	1400	176.65
969.5287	2418.4208	1398.5	180.55
969.658	2419.7964	1398.4	175.1
969.7873	2421.1713	1391.95	173.6
969.9165	2422.5455	1403.6	178.75
970.0458	2423.9189	1389.85	173.2
970.1749	2425.2916	1384.25	176.65
970.3041	2426.6637	1385.7	173.3
970.4332	2428.035	1381.5	171.9
970.5623	2429.4056	1384.5	173.35
970.6914	2430.7755	1400.15	173.4
970.8204	2432.1446	1386.7	166.9
970.9494	2433.5131	1388.55	170.25
971.0784	2434.8808	1387.5	166.55
971.2073	2436.2479	1385.95	164.8
971.3362	2437.6142	1390.55	165.35
971.465	2438.9798	1383.6	172.85
971.5939	2440.3447	1381.5	168.3
971.7227	2441.7089	1385.5	166.3
971.8514	2443.0724	1384.85	162.55
971.9802	2444.4351	1379.6	173.2
972.1089	2445.7972	1384.1	170.1
972.2375	2447.1585	1390.6	169.75
972.3661	2448.5192	1381.15	164.45
972.4947	2449.8791	1408.2	170.55
972.6233	2451.2383	1380.6	165.25
972.7518	2452.5968	1387.65	163.9
972.8803	2453.9546	1381.6	165.95
973.0088	2455.3117	1380.85	168.45
973.1372	2456.668	1379.4	162.15
973.2656	2458.0237	1372.75	160.5
973.394	2459.3786	1391.15	163.2
973.5223	2460.7329	1387.15	159.5
973.6506	2462.0864	1391.85	163.25
973.7789	2463.4392	1383.15	160.85
973.9071	2464.7913	1373.45	160.65
974.0353	2466.1427	1371.8	160.7
974.1635	2467.4934	1376.7	158
974.2916	2468.8434	1376.6	159.75
974.4197	2470.1927	1367.45	158.55
974.5478	2471.5413	1374.15	160.5
974.6758	2472.8891	1379.4	159.15
974.8038	2474.2363	1403.5	159.45
974.9317	2475.5827	1378.35	160
975.0597	2476.9284	1369.65	158.2
975.1876	2478.2735	1371.65	162.7
975.3154	2479.6178	1366.8	157.55
975.4433	2480.9614	1371.45	158.4
975.571	2482.3043	1372.5	160.25
975.6988	2483.6465	1375.9	159.6
975.8265	2484.988	1375.3	157.7
975.9542	2486.3287	1382.5	162.2
976.0819	2487.6688	1381.25	155.75
976.2095	2489.0082	1376.65	159.15
976.3371	2490.3468	1375.75	157.2
976.4646	2491.6848	1374.9	164
976.5922	2493.022	1376.75	151.2
976.7197	2494.3586	1366.75	154.95
976.8471	2495.6944	1370	163.9
976.9745	2497.0296	1397.25	154.4
977.1019	2498.364	1381.85	157.2
977.2293	2499.6977	1375.4	156.1
977.3566	2501.0307	1377.8	154.95
977.4839	2502.363	1373.95	151.4
977.6111	2503.6946	1381.45	152.3
977.7383	2505.0255	1370.75	150.15
977.8655	2506.3557	1365.7	153.7
977.9926	2507.6852	1368.9	156.2
978.1198	2509.014	1361.6	154.1
978.2468	2510.3421	1365.2	154.65
978.3739	2511.6694	1366.6	150.4
978.5009	2512.9961	1365.55	152.5
978.6279	2514.3221	1369.45	156.55
978.7548	2515.6473	1367.15	146.5
978.8817	2516.9719	1369.8	150.7
979.0086	2518.2957	1370.35	148.2
979.1354	2519.6189	1372.8	151.7
979.2622	2520.9413	1380.35	147.3
979.389	2522.2631	1373.45	151.8
979.5157	2523.5841	1364.5	149.3
979.6424	2524.9045	1371.65	150.2
979.7691	2526.2241	1366.15	156.85
979.8957	2527.543	1366.8	152.45
980.0223	2528.8613	1370.4	144.55
980.1488	2530.1788	1388.95	145.85
980.2754	2531.4956	1381.7	148.85
980.4018	2532.8118	1387.65	146.5
980.5283	2534.1272	1380.55	155.55
980.6547	2535.4419	1389.1	145.6
980.7811	2536.7559	1369.85	147.45
980.9074	2538.0692	1371.15	147.95
981.0338	2539.3819	1364.25	147.75
981.16	2540.6938	1359.6	144.8
981.2863	2542.005	1357.05	142.65
981.4125	2543.3155	1355.85	142.4
981.5387	2544.6253	1364.9	147.8
981.6648	2545.9344	1365.35	144.45
981.7909	2547.2429	1403.1	148.7
981.917	2548.5506	1375.9	145.4
982.043	2549.8576	1370.9	144.35
982.169	2551.1639	1368	151.35
982.295	2552.4695	1367.55	146.85
982.4209	2553.7744	1365.25	147.6
982.5468	2555.0787	1367.65	141.05
982.6726	2556.3822	1362.25	146.9
982.7985	2557.685	1364.3	145.5
982.9243	2558.9871	1362.05	149.6
983.05	2560.2885	1355.3	134.55
983.1757	2561.5892	1366.5	145.1
983.3014	2562.8893	1375	137.6
983.4271	2564.1886	1360.55	137.85
983.5527	2565.4872	1362.05	141.15
983.6782	2566.7852	1361.1	146.3
983.8038	2568.0824	1362.1	141.85
983.9293	2569.3789	1354.4	135.65
984.0547	2570.6748	1355.8	144.7
984.1802	2571.9699	1359.4	148.9
984.3056	2573.2643	1354.85	138.15
984.4309	2574.5581	1354.1	141.95
984.5563	2575.8511	1357.8	141.65
984.6816	2577.1435	1360.05	136.75
984.8068	2578.4351	1356.65	137.95
984.932	2579.7261	1377.65	138.3
985.0572	2581.0164	1368.6	144.4
985.1824	2582.3059	1370.35	139.25
985.3075	2583.5948	1357.8	137.75
985.4325	2584.883	1349.65	135.55
985.5576	2586.1704	1345.25	139.9
985.6826	2587.4572	1348.6	134
985.8076	2588.7433	1368.85	135.55
985.9325	2590.0287	1361.5	138.05
986.0574	2591.3134	1353.4	132.75
986.1822	2592.5974	1351.2	137
986.3071	2593.8807	1348.2	131.85
986.4319	2595.1633	1354.6	129.4
986.5566	2596.4452	1357.55	136.6
986.6813	2597.7265	1346.55	128.75
986.806	2599.007	1352.75	134.1
986.9307	2600.2868	1346.9	128.8
987.0553	2601.566	1337.2	127.3
987.1798	2602.8444	1351.8	132.35
987.3044	2604.1222	1345.15	130.8
987.4289	2605.3992	1341.55	131.8
987.5533	2606.6756	1346.5	132.5
987.6778	2607.9513	1347.15	133.6
987.8022	2609.2263	1356.2	130.9
987.9265	2610.5005	1351.6	128.5
988.0508	2611.7741	1352.15	129.15
988.1751	2613.047	1350.4	130.15
988.2994	2614.3193	1347.1	128.05
988.4236	2615.5908	1338.6	127.15
988.5477	2616.8616	1334.95	123.75
988.6719	2618.1317	1335.7	124.1
988.796	2619.4012	1342.25	123.05
988.92	2620.6699	1374.6	125.05
989.0441	2621.938	1348.55	124.4
989.1681	2623.2054	1338	119.25
989.292	2624.4721	1346	121.15
989.4159	2625.738	1354.15	130.7
989.5398	2627.0033	1370.6	130.6
989.6637	2628.2679	1358.8	127.4
989.7875	2629.5319	1360.9	127.65
989.9112	2630.7951	1342.15	129.8
990.035	2632.0576	1366.05	125.2
990.1587	2633.3195	1343.85	128.3
990.2823	2634.5806	1335.65	125.9
990.4059	2635.8411	1330.85	118.65
990.5295	2637.1009	1335.6	121.9
990.6531	2638.36	1339.15	123.4
990.7766	2639.6184	1338.15	116.3
990.9001	2640.8761	1347	127.85
991.0235	2642.1331	1340.5	124.05
991.1469	2643.3894	1345.45	124.15
991.2703	2644.6451	1341.6	122.15
991.3936	2645.9	1332	122.55
991.5169	2647.1543	1386.2	123.4
991.6402	2648.4079	1339.75	117.8
991.7634	2649.6608	1330.7	121.75
991.8866	2650.913	1332.25	119.55
992.0097	2652.1645	1336.5	125.4
992.1328	2653.4153	1332.25	119.35
992.2559	2654.6655	1339.55	121.75
992.3789	2655.9149	1345.55	125.15
992.5019	2657.1637	1362.5	124.7
992.6249	2658.4118	1348.4	122.65
992.7478	2659.6592	1336.05	117.8
992.8707	2660.9059	1345.35	118.1
992.9935	2662.1519	1336.7	127.55
993.1163	2663.3972	1374.95	117.55
993.2391	2664.6419	1345.9	118.3
993.3618	2665.8858	1340.15	120.5
993.4845	2667.1291	1337.55	117.45
993.6072	2668.3717	1347	121.4
993.7298	2669.6136	1343.35	123
993.8524	2670.8548	1337.5	116.2
993.975	2672.0954	1339.35	119.35
994.0975	2673.3352	1341.4	115.55
994.2199	2674.5744	1346.15	130.4
994.3424	2675.8129	1331.4	117.05
994.4648	2677.0507	1337.15	117.7
994.5871	2678.2878	1343.5	124.15
994.7095	2679.5242	1326.8	117.15
994.8317	2680.76	1338	122.6
994.954	2681.995	1342.2	123.6
995.0762	2683.2294	1337.1	116.15
995.1984	2684.4631	1347.85	120.7
995.3205	2685.6961	1340.7	116.75
995.4426	2686.9285	1347.25	124.7
995.5647	2688.1601	1338.15	122.05
995.6867	2689.3911	1328.75	119.3
995.8087	2690.6214	1339	117.1
995.9306	2691.851	1389.6	107.7
996.0525	2693.0799	1350.8	120.55
996.1744	2694.3081	1343.5	120.9
996.2962	2695.5357	1334.8	117.7
996.418	2696.7625	1332.7	121.15
996.5398	2697.9887	1328.2	113.75
996.6615	2699.2142	1338.7	119.65
996.7832	2700.4391	1338.25	122.25
996.9048	2701.6632	1335.4	118.2
997.0264	2702.8867	1336.75	123.05
997.148	2704.1095	1335.25	117.3
997.2695	2705.3316	1341	122.9
997.391	2706.553	1336.65	114.25
997.5125	2707.7737	1326.75	117.4
997.6339	2708.9938	1330.35	116.9
997.7553	2710.2132	1335.05	121.65
997.8766	2711.4319	1351.55	113.65
997.9979	2712.6499	1354.55	120.95
998.1192	2713.8673	1355.15	121.8
998.2404	2715.0839	1343.7	121.3
998.3616	2716.2999	1338.6	115.55
998.4827	2717.5152	1336.6	120.9
998.6038	2718.7298	1337.75	111.55
998.7249	2719.9438	1333.7	113.5
998.8459	2721.1571	1338.1	121.95
998.9669	2722.3696	1350.55	122.3
999.0879	2723.5816	1338.05	117.9
999.2088	2724.7928	1337.5	120.2
999.3297	2726.0034	1333.05	122.3
999.4505	2727.2132	1338.3	120.9
999.5713	2728.4224	1337.7	117.05
999.6921	2729.631	1327.65	110.7
999.8128	2730.8388	1335.75	118.85
999.9335	2732.046	1337	119.8
1000.0542	2733.2525	1336.25	125.1
1000.1748	2734.4583	1351.9	120.15
1000.2953	2735.6634	1339.75	121.8
1000.4159	2736.8679	1334.65	116.75
1000.5364	2738.0717	1333.55	117.6
1000.6568	2739.2748	1339.5	119.7
1000.7772	2740.4773	1334.05	122.1
1000.8976	2741.679	1330.05	114.65
1001.0179	2742.8801	1344.85	119.75
1001.1382	2744.0805	1331.6	112.95
1001.2585	2745.2802	1336.4	115.9
1001.3787	2746.4793	1335.1	118.4
1001.4989	2747.6777	1336.15	117.2
1001.6191	2748.8754	1329.1	117.2
1001.7392	2750.0724	1328.95	119.45
1001.8592	2751.2688	1328.75	118.85
1001.9793	2752.4645	1330.15	111.55
1002.0992	2753.6595	1342.9	114.45
1002.2192	2754.8538	1340	119.9
1002.3391	2756.0475	1347.4	121.45
1002.459	2757.2405	1337.15	122
1002.5788	2758.4328	1340.9	119.5
1002.6986	2759.6245	1333.6	117.2
1002.8184	2760.8154	1338.85	121.2
1002.9381	2762.0057	1330.3	117.65
1003.0578	2763.1954	1326.9	124.25
1003.1774	2764.3843	1329.6	120.45
1003.297	2765.5726	1336.75	124.65
1003.4166	2766.7602	1333.05	122.5
1003.5361	2767.9472	1331.25	122.15
1003.6556	2769.1334	1338.45	119.05
1003.775	2770.319	1342.25	119.8
1003.8944	2771.5039	1346.6	129.2
1004.0138	2772.6882	1345.85	120.95
1004.1331	2773.8718	1332.5	115.35
1004.2524	2775.0547	1343.45	122.05
1004.3716	2776.2369	1347.35	126
1004.4908	2777.4185	1339.85	119.8
1004.61	2778.5994	1338.05	124.9
1004.7291	2779.7796	1342.8	127.95
1004.8482	2780.9592	1334.05	125.1
1004.9673	2782.1381	1344.7	123.35
1005.0863	2783.3163	1349.75	128.15
1005.2052	2784.4938	1335.75	124.85
1005.3242	2785.6707	1365.4	123.8
1005.4431	2786.8469	1343.55	122.95
1005.5619	2788.0225	1335.15	124.3
1005.6807	2789.1973	1325.9	114.6
1005.7995	2790.3715	1326.15	116.45
1005.9182	2791.5451	1336.65	124.9
1006.0369	2792.7179	1340.6	123.55
1006.1556	2793.8901	1329.55	114.15
1006.2742	2795.0616	1347.6	116.55
1006.3928	2796.2325	1340.75	118.4
1006.5113	2797.4027	1346.75	118.8
1006.6298	2798.5722	1343.95	120.1
1006.7482	2799.7411	1330.5	116
1006.8667	2800.9093	1336.4	114.45
1006.985	2802.0768	1336.2	116.55
1007.1034	2803.2436	1340.5	120.7
1007.2217	2804.4098	1334.15	118.95
1007.3399	2805.5754	1335.65	121.15
1007.4581	2806.7402	1346.75	121.1
1007.5763	2807.9044	1359.4	121.1
1007.6944	2809.0679	1352.15	124.6
1007.8125	2810.2308	1344.3	126
1007.9306	2811.393	1334.1	123.95
1008.0486	2812.5545	1341.1	122.25
1008.1666	2813.7154	1341.9	124.65
1008.2845	2814.8755	1340.05	124.65
1008.4024	2816.0351	1339.25	122
1008.5203	2817.1939	1335.2	122.4
1008.6381	2818.3521	1332	118.45
1008.7559	2819.5097	1331.55	125.25
1008.8736	2820.6665	1331.4	124.35
1008.9913	2821.8228	1326.05	119
1009.109	2822.9783	1331.05	123.85
1009.2266	2824.1332	1339.2	122.5
1009.3441	2825.2874	1339.4	127.15
1009.4617	2826.4409	1352.3	124.15
1009.5792	2827.5938	1336.5	120.65
1009.6966	2828.7461	1352	123.7
1009.814	2829.8976	1340.6	124.35
1009.9314	2831.0485	1335.6	125.95
1010.0487	2832.1987	1334.3	123.3
1010.166	2833.3483	1337.9	123.4
1010.2833	2834.4972	1337.65	125.1
1010.4005	2835.6455	1339.55	121.35
1010.5177	2836.7931	1344.15	126.1
1010.6348	2837.94	1388.9	126.6
1010.7519	2839.0863	1350.2	120.4
1010.869	2840.2319	1349.85	121.3
1010.986	2841.3768	1353.9	123.15
1011.1029	2842.5211	1345.3	126.1
1011.2199	2843.6647	1347.6	122.25
1011.3367	2844.8076	1349.25	126.75
1011.4536	2845.9499	1340.4	126.85
1011.5704	2847.0916	1344.35	128
1011.6872	2848.2326	1338.3	123.4
1011.8039	2849.3729	1343.45	126.9
1011.9206	2850.5125	1337.35	122.35
1012.0372	2851.6515	1347	130.45
1012.1538	2852.7899	1352	131.5
1012.2704	2853.9275	1352.7	130.7
1012.3869	2855.0645	1346.75	133.5
1012.5034	2856.2009	1340.5	128.15
1012.6198	2857.3366	1351.55	125.7
1012.7362	2858.4716	1347.5	133
1012.8526	2859.606	1346.95	137.05
1012.9689	2860.7397	1348.35	134.3
1013.0852	2861.8728	1354.5	131.1
1013.2014	2863.0052	1352.7	138.5
1013.3176	2864.137	1351.65	133.1
1013.4338	2865.268	1356.7	135.9
1013.5499	2866.3985	1401.15	135.8
1013.666	2867.5283	1383.1	133.2
1013.782	2868.6574	1368.65	139.05
1013.898	2869.7858	1357.45	134.95
1014.0139	2870.9136	1356	135.95
1014.1299	2872.0408	1368.4	137.05
1014.2457	2873.1673	1361.5	134.4
1014.3615	2874.2931	1356.8	138.5
1014.4773	2875.4183	1354.5	137.25
1014.5931	2876.5428	1358.8	135.9
1014.7088	2877.6667	1363.85	146.3
1014.8244	2878.7899	1367.7	138.8
1014.9401	2879.9124	1361.35	145.75
1015.0556	2881.0343	1370.45	143.2
1015.1712	2882.1556	1361.6	143.6
1015.2867	2883.2762	1361	144.3
1015.4021	2884.3961	1365.85	142.95
1015.5176	2885.5154	1362.7	144.55
1015.6329	2886.634	1359.1	147.45
1015.7483	2887.752	1424.1	149.65
1015.8636	2888.8693	1437	153.45
1015.9788	2889.986	1392.4	158.35
1016.094	2891.102	1381.85	156.2
1016.2092	2892.2173	1379.35	159.15
1016.3243	2893.332	1382.75	161.5
1016.4394	2894.4461	1378.95	164.1
1016.5544	2895.5595	1382.75	161.95
1016.6694	2896.6722	1383.6	161.6
1016.7844	2897.7843	1377.4	159.1
1016.8993	2898.8957	1372.5	158.55
1017.0142	2900.0065	1375.5	166.55
1017.129	2901.1166	1385.05	167.9
1017.2438	2902.2261	1382.75	168.55
1017.3586	2903.3349	1391.1	172.4
1017.4733	2904.4431	1393.85	173.35
1017.588	2905.5506	1397.4	169.5
1017.7026	2906.6575	1414.05	165.9
1017.8172	2907.7637	1403.15	177.65
1017.9317	2908.8693	1401	182.3
1018.0462	2909.9742	1406.45	190.55
1018.1607	2911.0785	1403	188.15
1018.2751	2912.1821	1396.7	186.95
1018.3895	2913.2851	1403	190.5
1018.5038	2914.3874	1409.7	195.1
1018.6181	2915.4891	1407.95	194.55
1018.7324	2916.5901	1419.3	198
1018.8466	2917.6905	1416.45	191.5
1018.9607	2918.7902	1445.25	200.1
1019.0749	2919.8893	1436.75	206.15
1019.189	2920.9877	1429.15	210.95
1019.303	2922.0854	1441.05	216.7
1019.417	2923.1826	1438.6	213.45
1019.531	2924.279	1447.7	215.3
1019.6449	2925.3749	1456.9	222.8
1019.7587	2926.47	1437.1	220.55
1019.8726	2927.5646	1437.5	226.15
1019.9864	2928.6585	1458.05	224.9
1020.1001	2929.7517	1455.2	224.1
1020.2138	2930.8443	1459.55	229.7
1020.3275	2931.9362	1460.6	228.85
1020.4411	2933.0275	1455.85	237.85
1020.5547	2934.1182	1453.75	237.5
1020.6682	2935.2082	1453.95	238.55
1020.7817	2936.2975	1451.95	237.65
1020.8952	2937.3862	1459.1	235.55
1021.0086	2938.4743	1458.85	246.1
1021.122	2939.5617	1482.05	242.75
1021.2353	2940.6484	1464.3	249.6
1021.3486	2941.7346	1464.05	250.05
1021.4618	2942.82	1476.15	251.05
1021.575	2943.9049	1475.05	254.25
1021.6882	2944.9891	1481.9	254.85
1021.8013	2946.0726	1500.95	252.55
1021.9144	2947.1555	1480.8	253.4
1022.0274	2948.2377	1467.7	248.55
1022.1404	2949.3193	1467.2	254.55
1022.2534	2950.4003	1463.3	251.7
1022.3663	2951.4806	1475.9	250.9
1022.4791	2952.5603	1468.15	247.2
1022.592	2953.6393	1476.45	258.15
1022.7047	2954.7177	1470.6	253.85
1022.8175	2955.7954	1465.3	254.6
1022.9302	2956.8725	1468.9	253.2
1023.0428	2957.949	1467.2	249.6
1023.1554	2959.0248	1471.7	243.85
1023.268	2960.1	1471.6	240.05
1023.3805	2961.1745	1488.75	240.05
1023.493	2962.2484	1465.55	239.8
1023.6054	2963.3216	1459.85	241.15
1023.7178	2964.3942	1460.95	236.8
1023.8302	2965.4662	1458.55	232.05
1023.9425	2966.5375	1451.55	232.35
1024.0548	2967.6082	1445.9	231.05
1024.167	2968.6782	1472.65	231.45
1024.2792	2969.7476	1484	230.35
1024.3913	2970.8163	1462.25	238
1024.5034	2971.8844	1452.05	234.25
1024.6155	2972.9519	1449.8	228.25
1024.7275	2974.0187	1445.9	226.7
1024.8394	2975.0849	1449.2	231.45
1024.9514	2976.1505	1446.95	232
1025.0632	2977.2154	1442.45	231.45
1025.1751	2978.2797	1437.25	224.65
1025.2869	2979.3433	1442.75	223.15
1025.3986	2980.4063	1438.25	224.85
1025.5104	2981.4686	1448.45	229.75
1025.622	2982.5303	1446.15	232.5
1025.7336	2983.5914	1448.45	228.8
1025.8452	2984.6518	1452.95	232.25
1025.9568	2985.7116	1452.1	230.2
1026.0683	2986.7708	1464.25	229.75
1026.1797	2987.8293	1465.9	233.75
1026.2911	2988.8872	1467.3	231.65
1026.4025	2989.9444	1462.85	235.05
1026.5138	2991.001	1456.7	238.4
1026.6251	2992.057	1460.05	241.85
1026.7364	2993.1123	1457.65	240.2
1026.8475	2994.167	1474.4	241.35
1026.9587	2995.2211	1465.05	243.6
1027.0698	2996.2745	1467.85	241.6
1027.1809	2997.3272	1464.3	244.95
1027.2919	2998.3794	1462	244.55
1027.4029	2999.4309	1459.55	246.45
1027.5138	3000.4818	1462.35	252.7
1027.6247	3001.532	1453.25	244.4
1027.7356	3002.5816	1458.25	247
1027.8464	3003.6306	1470.45	254.85
1027.9571	3004.6789	1480.9	250.25
1028.0679	3005.7266	1470.4	253.8
1028.1785	3006.7736	1474.4	253.15
1028.2892	3007.8201	1478.95	261.25
1028.3998	3008.8659	1479.95	263
1028.5103	3009.911	1487.95	263.05
1028.6208	3010.9555	1482.1	268.4
1028.7313	3011.9994	1478.75	267.1
1028.8417	3013.0427	1481.25	265.15
1028.9521	3014.0853	1489.15	274.05
1029.0624	3015.1273	1479.25	268.55
1029.1727	3016.1686	1489	267.95
1029.2829	3017.2093	1488.8	277.5
1029.3931	3018.2494	1483.8	273.05
1029.5033	3019.2889	1500.1	274.45
1029.6134	3020.3277	1499.9	280.8
1029.7235	3021.3659	1501.4	285.35
1029.8335	3022.4034	1500	280.55
1029.9435	3023.4404	1514.05	279.55
1030.0534	3024.4766	1512.9	289.25
1030.1633	3025.5123	1512.3	286.7
1030.2732	3026.5473	1521.7	295.7
1030.383	3027.5817	1513.8	297.7
1030.4927	3028.6155	1513.75	292.25
1030.6025	3029.6486	1522.95	305.15
1030.7121	3030.6811	1516.65	291.65
1030.8218	3031.713	1519.75	303.45
1030.9314	3032.7442	1520.1	302.05
1031.0409	3033.7748	1524	308.1
1031.1504	3034.8048	1527.4	304.9
1031.2599	3035.8342	1524.55	310.5
1031.3693	3036.8629	1524.55	312.85
1031.4787	3037.891	1535.15	314.25
1031.588	3038.9184	1539.15	314.7
1031.6973	3039.9453	1542.3	316.6
1031.8065	3040.9715	1538.7	318.55
1031.9157	3041.997	1530.35	322.2
1032.0249	3043.022	1541.75	324
1032.134	3044.0463	1549.2	327.55
1032.243	3045.07	1550.9	334.85
1032.3521	3046.093	1567.45	332.55
1032.461	3047.1155	1569.25	337.35
1032.57	3048.1373	1560.25	340
1032.6789	3049.1584	1564.5	343.55
1032.7877	3050.179	1565.75	348.25
1032.8965	3051.1989	1558.1	344.3
1033.0053	3052.2182	1556.8	346.6
1033.114	3053.2368	1557.85	345.8
1033.2226	3054.2549	1559.65	350.55
1033.3313	3055.2723	1565.2	354.55
1033.4398	3056.2891	1568.4	352
1033.5484	3057.3052	1577.85	358.65
1033.6569	3058.3208	1580.75	357.65
1033.7653	3059.3357	1595.8	358.7
1033.8737	3060.3499	1595.15	367.95
1033.9821	3061.3636	1589.95	365.4
1034.0904	3062.3766	1594.05	369.9
1034.1987	3063.389	1595.1	371.7
1034.3069	3064.4008	1608	374.2
1034.4151	3065.412	1595.3	377.9
1034.5232	3066.4225	1596.95	383.2
1034.6313	3067.4324	1592.65	383
1034.7394	3068.4417	1595.9	383.1
1034.8474	3069.4503	1601.2	389.65
1034.9553	3070.4584	1600.05	386.3
1035.0633	3071.4658	1603.45	389.75
1035.1711	3072.4725	1609.6	396.1
1035.279	3073.4787	1618.75	404.45
1035.3868	3074.4842	1626.45	403.3
1035.4945	3075.4892	1623.8	404.75
1035.6022	3076.4934	1629.75	412.1
1035.7098	3077.4971	1639.05	410.1
1035.8174	3078.5002	1622.95	403.9
1035.925	3079.5026	1615.85	407.5
1036.0325	3080.5044	1626.9	416.85
1036.14	3081.5056	1627.2	417.45
1036.2474	3082.5061	1640.25	418
1036.3548	3083.506	1651.95	429.65
1036.4622	3084.5054	1647.75	431.95
1036.5695	3085.504	1653.75	434.45
1036.6767	3086.5021	1649.1	434.25
1036.7839	3087.4996	1646.8	431.55
1036.8911	3088.4964	1656.8	441.3
1036.9982	3089.4926	1662	442.6
1037.1053	3090.4882	1679.45	443.85
1037.2123	3091.4832	1666.65	452.35
1037.3193	3092.4775	1667.8	449.05
1037.4262	3093.4712	1676.45	456.15
1037.5331	3094.4643	1680.1	455.85
1037.64	3095.4568	1684.5	462
1037.7468	3096.4487	1695.3	472.6
1037.8535	3097.4399	1703.95	464.3
1037.9602	3098.4306	1745.95	464.55
1038.0669	3099.4206	1729.05	477.9
1038.1735	3100.41	1703.9	481.95
1038.2801	3101.3988	1708.5	481.65
1038.3867	3102.3869	1698.75	485.35
1038.4931	3103.3744	1702.7	490.2
1038.5996	3104.3614	1753.7	488.85
1038.706	3105.3477	1733.15	496.6
1038.8124	3106.3333	1718.55	496.15
1038.9187	3107.3184	1720.8	504.2
1039.0249	3108.3029	1720.65	502.4
1039.1312	3109.2867	1730.65	507.85
1039.2373	3110.2699	1728	512.05
1039.3435	3111.2525	1735.1	514.85
1039.4496	3112.2345	1750.55	513.75
1039.5556	3113.2159	1744.4	520.35
1039.6616	3114.1966	1751.15	515.75
1039.7675	3115.1767	1746.8	526.95
1039.8735	3116.1563	1757.05	538.1
1039.9793	3117.1352	1760.8	536.2
1040.0851	3118.1134	1767.3	536.85
1040.1909	3119.0911	1767.6	543.4
1040.2966	3120.0682	1767.3	543.7
1040.4023	3121.0446	1761.75	538.75
1040.508	3122.0204	1773	545.3
1040.6136	3122.9957	1786.5	553.15
1040.7191	3123.9703	1777.35	554.1
1040.8246	3124.9442	1771.35	558.85
1040.9301	3125.9176	1801.7	559.65
1041.0355	3126.8904	1791.25	572.95
1041.1408	3127.8625	1784.25	562.75
1041.2462	3128.834	1788.1	578.1
1041.3514	3129.8049	1790.45	575.75
1041.4567	3130.7752	1812.6	586.15
1041.5619	3131.7449	1805.5	577.15
1041.667	3132.714	1802	586.8
1041.7721	3133.6825	1801.6	587.3
1041.8771	3134.6503	1807.95	596.3
1041.9821	3135.6176	1807.3	595.35
1042.0871	3136.5842	1812.15	598.2
1042.192	3137.5502	1818.8	599.6
1042.2969	3138.5156	1842.15	599.65
1042.4017	3139.4804	1838.65	609.05
1042.5065	3140.4446	1842.9	609.35
1042.6112	3141.4082	1829.6	611.9
1042.7159	3142.3711	1847.3	615.55
1042.8206	3143.3335	1830.9	612.25
1042.9252	3144.2952	1833.6	619.5
1043.0297	3145.2563	1835.6	624.4
1043.1342	3146.2168	1834.45	621.85
1043.2387	3147.1767	1832	623.7
1043.3431	3148.136	1846.85	626.6
1043.4475	3149.0947	1845.95	638.05
1043.5518	3150.0528	1854.5	643.7
1043.6561	3151.0103	1864.85	652.6
1043.7603	3151.9671	1866.3	646.75
1043.8645	3152.9234	1867.4	644.15
1043.9686	3153.879	1875.6	651.3
1044.0727	3154.8341	1869.7	656
1044.1768	3155.7885	1897.75	655.75
1044.2808	3156.7423	1901.55	653.3
1044.3847	3157.6955	1889.05	654.9
1044.4886	3158.6481	1883.85	665.35
1044.5925	3159.6001	1907.05	646.05
1044.6963	3160.5515	1889.65	664.75
1044.8001	3161.5023	1886.55	673.95
1044.9038	3162.4524	1897.05	679.6
1045.0075	3163.402	1882.15	668.45
1045.1112	3164.3509	1881.95	672.15
1045.2148	3165.2993	1925.15	677.25
1045.3183	3166.247	1898	672.95
1045.4218	3167.1942	1895.7	681.95
1045.5253	3168.1407	1894.1	677.05
1045.6287	3169.0866	1924	679.85
1045.7321	3170.0319	1901.2	675.4
1045.8354	3170.9767	1903.6	685.1
1045.9386	3171.9208	1903.05	687.85
1046.0419	3172.8643	1903.3	677.3
1046.1451	3173.8072	1917.4	700.2
1046.2482	3174.7495	1905.8	688.2
1046.3513	3175.6911	1918.95	694.8
1046.4543	3176.6322	1915.85	694.05
1046.5573	3177.5727	1926.35	695.2
1046.6603	3178.5126	1925.65	699.4
1046.7632	3179.4519	1915.4	697.1
1046.8661	3180.3905	1920.45	702.25
1046.9689	3181.3286	1918.25	701.5
1047.0716	3182.266	1922.15	707.1
1047.1744	3183.2029	1925.35	716.45
1047.277	3184.1392	1919.95	714.75
1047.3797	3185.0748	1921.25	708.8
1047.4823	3186.0099	1960.95	702.3
1047.5848	3186.9443	1941.9	713.25
1047.6873	3187.8781	1929.95	714.5
1047.7897	3188.8114	1925.7	716.55
1047.8921	3189.744	1931.4	718.15
1047.9945	3190.6761	1926.1	712.05
1048.0968	3191.6075	1931.5	717.75
1048.1991	3192.5383	1930.35	715.85
1048.3013	3193.4686	1925.6	711.8
1048.4034	3194.3982	1935.95	718.65
1048.5056	3195.3272	1953.35	728.1
1048.6076	3196.2557	1950.05	728.5
1048.7097	3197.1835	1942.7	726.5
1048.8117	3198.1107	1942.6	726.55
1048.9136	3199.0373	1952.55	734.5
1049.0155	3199.9634	1935.45	726.25
1049.1173	3200.8888	1958.8	728
1049.2191	3201.8136	1948.9	730.2
1049.3209	3202.7379	1934.35	719.15
1049.4226	3203.6615	1934.75	715.4
1049.5243	3204.5845	1928.25	715.95
1049.6259	3205.507	1939.8	723.75
1049.7275	3206.4288	1959.2	723.95
1049.829	3207.35	1953.9	736.25
1049.9305	3208.2707	1935.8	722
1050.0319	3209.1907	1952.15	732.35
1050.1333	3210.1102	1937.65	716.15
1050.2346	3211.029	1933.1	719.7
1050.3359	3211.9472	1920.6	713.75
1050.4372	3212.8649	1934.2	723.45
1050.5383	3213.7819	1929.95	722.45
1050.6395	3214.6984	1921.75	710.05
1050.7406	3215.6143	1930.5	718.4
1050.8417	3216.5295	1928.85	714.7
1050.9427	3217.4442	1933.45	717.75
1051.0436	3218.3582	1936.35	720.55
1051.1446	3219.2717	1930.15	714.9
1051.2454	3220.1846	1936.6	713.55
1051.3463	3221.0969	1931.9	703.5
1051.447	3222.0086	1924.15	710.05
1051.5478	3222.9196	1931.35	710
1051.6485	3223.8301	1924.35	696.9
1051.7491	3224.74	1926.5	704.65
1051.8497	3225.6493	1920.9	698.25
1051.9503	3226.558	1913.35	698.6
1052.0508	3227.4662	1920.7	700.8
1052.1512	3228.3737	1917.5	693.25
1052.2516	3229.2806	1945.45	692
1052.352	3230.1869	1919	697.3
1052.4523	3231.0927	1913.6	694.6
1052.5526	3231.9978	1911.25	694.8
1052.6528	3232.9024	1910.4	684.2
1052.753	3233.8063	1894.9	678.3
1052.8531	3234.7097	1896.8	681.1
1052.9532	3235.6124	1888.7	672.15
1053.0532	3236.5146	1882.5	670.7
1053.1532	3237.4162	1889.1	672.55
1053.2531	3238.3172	1896.75	669
1053.353	3239.2176	1888.9	670.45
1053.4529	3240.1174	1898.55	656
1053.5527	3241.0166	1883.55	656.8
1053.6524	3241.9152	1898.05	660.55
1053.7521	3242.8133	1872.55	651.65
1053.8518	3243.7107	1900	647.2
1053.9514	3244.6076	1865.15	636.3
1054.051	3245.5038	1857.7	640.4
1054.1505	3246.3995	1849	624.25
1054.25	3247.2946	1838.65	622.8
1054.3494	3248.1891	1829.9	609.75
1054.4488	3249.083	1819.25	602.35
1054.5481	3249.9763	1818.7	592.7
1054.6474	3250.869	1806.75	589.6
1054.7466	3251.7611	1789	574.85
1054.8458	3252.6526	1776.15	562
1054.945	3253.5436	1763.9	545.65
1055.0441	3254.434	1737.1	527.4
1055.1431	3255.3237	1721	515.65
1055.2421	3256.2129	1700.25	483.9
